Time Ch1 Ch2 Ch3 Ch4 Ch5 Ch6 Ch7 Ch8 Ch9 Ch10 Ch11 Ch12 Ch13 Ch14
2.762 86277.91 75996.42 78178.96 92097.64 84829.99 65318.37 46731.82 50459.67 58901.81 58478.35 3771.30 761.64 178.01 1908.79
2.776 86279.70 75997.63 78180.41 92098.51 84830.77 65318.77 46732.38 50460.38 58911.20 58489.42 3782.72 772.97 190.71 1923.12
2.791 86272.66 75990.92 78173.53 92091.00 84823.15 65309.99 46723.86 50451.11 58902.01 58480.01 3772.30 761.70 179.04 1911.05
2.806 86278.52 75996.89 78179.76 92097.14 84829.18 65315.71 46730.57 50457.79 58896.40 58474.20 3766.13 755.60 172.91 1905.13
2.820 86275.61 75993.54 78176.70 92093.84 84825.61 65311.15 46726.32 50453.36 58909.92 58489.17 3781.16 770.91 189.30 1921.96
2.835 86265.62 75983.95 78167.02 92083.55 84814.95 65299.95 46715.24 50442.01 58879.93 58458.55 3749.59 738.55 156.19 1888.68
2.849 86282.23 76000.89 78185.89 92102.20 84835.11 65317.65 46736.85 50465.21 58913.39 58495.14 3784.15 770.82 191.47 1923.97
2.858 86280.77 75999.69 78184.01 92099.25 84830.82 65312.53 46731.57 50458.39 58909.01 58491.03 3779.90 767.11 187.93 1921.53
2.866 86280.04 75998.70 78183.30 92098.42 84830.35 65311.62 46731.28 50458.26 58896.89 58478.73 3765.78 752.69 173.16 1906.27
2.874 86274.02 75992.31 78177.24 92091.49 84823.44 65303.88 46723.28 50449.88 58909.99 58492.17 3779.19 766.46 187.49 1920.48
2.883 86272.75 75990.75 78175.38 92089.54 84820.85 65300.93 46720.71 50446.88 58883.77 58466.06 3752.34 738.90 160.15 1893.26
2.891 86276.55 75995.28 78180.66 92094.82 84826.79 65307.35 46728.04 50454.73 58905.63 58488.79 3775.10 761.64 183.51 1916.22
2.899 86271.50 75990.52 78176.39 92090.22 84821.12 65300.84 46721.56 50447.57 58902.14 58485.49 3770.14 755.78 177.85 1910.83
2.908 86259.14 75977.25 78161.17 92073.61 84802.27 65279.68 46698.45 50421.51 58874.92 58457.25 3741.06 726.16 146.67 1879.49
2.916 86269.02 75988.15 78174.87 92089.21 84821.56 65301.31 46724.56 50452.60 58877.45 58462.11 3747.96 734.61 159.50 1894.74
2.924 86279.99 75999.55 78186.67 92100.45 84833.32 65312.53 46736.47 50464.00 58913.45 58498.63 3783.30 768.32 190.75 1923.50
2.933 86274.72 75993.27 78179.41 92092.09 84823.66 65301.60 46723.59 50449.30 58902.10 58486.78 3770.31 754.71 177.99 1911.68
2.941 86282.76 76001.14 78187.32 92099.13 84830.75 65308.31 46730.48 50455.58 58892.71 58476.99 3759.81 744.45 167.41 1901.06
2.949 86276.66 75995.95 78183.21 92095.51 84827.33 65305.20 46728.71 50454.59 58913.59 58498.70 3781.51 765.90 189.99 1923.93
2.958 86262.69 75981.18 78168.54 92080.20 84812.00 65289.02 46712.69 50438.68 58887.97 58473.91 3756.57 741.32 165.83 1900.41
2.966 86266.40 75985.60 78173.68 92084.96 84816.89 65293.89 46718.21 50442.93 58887.79 58473.46 3755.29 739.33 163.15 1897.39
2.974 86261.24 75979.97 78167.63 92078.19 84809.38 65286.14 46709.47 50434.45 58888.82 58474.73 3756.55 740.27 165.18 1899.36
2.983 86283.68 76002.26 78189.82 92099.71 84830.82 65306.61 46730.55 50454.62 58887.08 58473.01 3753.48 736.87 162.01 1896.23
2.991 86261.22 75980.58 78168.25 92078.66 84810.19 65285.65 46710.99 50435.95 58892.38 58478.18 3758.45 741.45 166.65 1901.08
2.999 86261.24 75979.97 78167.63 92078.19 84809.38 65286.14 46709.47 50434.45 58888.82 58474.73 3756.55 740.27 165.18 1899.36
3.008 86283.68 76002.26 78189.82 92099.71 84830.82 65306.61 46730.55 50454.62 58887.08 58473.01 3753.48 736.87 162.01 1896.23
3.016 86261.22 75980.58 78168.25 92078.66 84810.19 65285.65 46710.99 50435.95 58892.38 58478.18 3758.45 741.45 166.65 1901.08
3.024 86271.72 75990.86 78179.00 92089.48 84821.50 65297.43 46723.44 50448.42 58893.47 58481.24 3761.71 744.80 170.70 1905.73
3.033 86279.43 75998.52 78186.83 92096.90 84828.16 65303.30 46729.21 50453.74 58895.95 58483.45 3763.39 746.03 172.29 1907.03
3.041 86282.49 76000.85 78189.02 92097.88 84828.40 65302.32 46727.15 50449.85 58902.90 58490.51 3769.82 752.02 178.19 1912.93
3.049 86262.04 75980.69 78169.30 92078.55 84809.60 65283.92 46710.30 50434.32 58887.01 58474.29 3753.26 735.80 162.83 1898.33
3.058 86269.53 75987.93 78177.71 92087.18 84818.46 65292.82 46719.84 50444.38 58887.08 58474.82 3753.57 734.46 160.98 1895.54
3.066 86265.64 75984.38 78174.42 92083.20 84815.10 65289.53 46717.05 50441.99 58893.07 58482.09 3761.51 743.46 171.97 1907.41
3.074 86263.90 75982.16 78170.85 92078.79 84809.45 65282.23 46708.06 50431.06 58882.12 58469.73 3745.95 726.03 152.28 1886.29
3.083 86272.55 75991.37 78180.57 92088.78 84820.69 65293.96 46721.54 50445.96 58888.00 58476.99 3754.31 735.48 163.44 1898.71
3.091 86276.97 75995.80 78184.28 92092.65 84823.84 65297.22 46724.44 50448.58 58895.01 58484.55 3761.33 742.30 170.83 1906.63
3.099 86260.86 75978.85 78167.98 92075.71 84806.63 65279.23 46707.19 50430.65 58886.18 58475.58 3751.16 731.33 159.23 1894.24
3.108 86269.15 75987.82 78177.22 92084.99 84816.26 65288.60 46717.40 50442.10 58883.28 58473.17 3749.44 729.92 160.06 1895.90
3.116 86278.54 75997.81 78186.96 92094.15 84824.94 65296.82 46725.16 50448.33 58892.67 58483.09 3758.18 738.03 166.86 1902.83
3.124 86280.19 75998.73 78187.36 92094.46 84824.85 65295.79 46724.27 50446.70 58896.56 58486.87 3760.93 740.47 169.78 1905.91
3.133 86253.66 75972.53 78162.75 92069.52 84801.18 65273.20 46703.17 50427.73 58881.60 58472.81 3747.81 727.77 157.83 1893.66
3.141 86280.10 75999.46 78190.29 92097.35 84828.94 65300.98 46730.79 50454.75 58889.58 58480.19 3754.36 732.71 163.08 1898.20
3.149 86288.17 76007.40 78199.23 92104.90 84836.25 65306.30 46737.79 50461.70 58898.08 58490.78 3763.65 742.39 175.46 1913.13
3.158 86251.85 75970.58 78162.96 92068.94 84800.93 65270.98 46703.17 50428.22 58894.61 58488.01 3759.38 736.18 167.41 1903.14
3.166 86269.66 75988.67 78180.59 92085.54 84816.91 65286.03 46718.21 50441.90 58877.71 58471.72 3743.18 720.60 153.29 1890.02
3.174 86275.50 75994.01 78185.53 92089.66 84820.04 65288.80 46720.13 50443.22 58896.49 58490.07 3760.64 737.27 170.23 1906.54
3.183 86268.66 75987.08 78178.20 92082.01 84812.17 65280.82 46712.58 50435.68 58880.49 58473.71 3743.45 720.37 153.00 1890.13
3.191 86264.93 75983.91 78176.37 92080.36 84811.10 65280.24 46712.82 50435.95 58890.25 58484.30 3753.77 730.21 163.41 1900.41
3.199 86261.31 75980.33 78172.97 92076.98 84808.29 65277.67 46711.01 50435.08 58886.23 58480.30 3749.21 725.45 158.27 1894.94
3.208 86271.05 75989.81 78181.48 92084.74 84814.79 65283.48 46716.04 50438.66 58878.76 58473.46 3741.64 717.69 151.14 1887.69
3.216 86280.01 75998.95 78191.01 92093.39 84823.91 65292.11 46724.60 50447.24 58895.48 58490.29 3758.38 733.76 167.73 1904.44
3.224 86257.24 75976.08 78168.57 92071.66 84802.43 65270.78 46704.51 50427.88 58879.26 58474.15 3741.79 716.82 150.38 1887.09
3.233 86280.39 75999.42 78191.68 92094.42 84825.16 65293.29 46726.70 50449.41 58883.86 58480.66 3748.50 723.73 159.03 1896.59
3.241 86261.64 75980.17 78173.59 92075.91 84807.32 65275.57 46710.23 50434.10 58893.85 58489.44 3755.67 730.10 165.05 1901.53
3.249 86261.91 75980.98 78173.82 92074.93 84805.25 65272.32 46705.94 50427.68 58877.76 58474.62 3741.35 715.73 150.43 1887.58
3.258 86266.62 75984.96 78177.44 92078.86 84808.62 65275.19 46708.69 50430.01 58882.16 58477.71 3742.49 715.68 149.67 1886.11
3.266 86276.44 75995.17 78188.77 92090.62 84822.03 65288.78 46724.71 50448.83 58872.77 58470.89 3737.66 713.18 150.99 1890.33
3.274 86274.07 75993.94 78188.37 92090.37 84821.70 65288.62 46724.71 50449.09 58912.94 58510.23 3774.63 747.00 182.14 1918.11
3.282 86259.79 75978.45 78171.61 92072.36 84802.63 65267.88 46702.96 50425.45 58877.65 58475.00 3739.58 712.46 148.55 1885.62
3.291 86260.66 75980.08 78173.71 92073.99 84804.51 65269.71 46705.31 50427.75 58866.05 58464.03 3727.73 700.91 137.37 1874.69
3.299 86274.07 75993.94 78188.37 92090.37 84821.70 65288.62 46724.71 50449.09 58912.94 58510.23 3774.63 747.00 182.14 1918.11
3.307 86259.79 75978.45 78171.61 92072.36 84802.63 65267.88 46702.96 50425.45 58877.65 58475.00 3739.58 712.46 148.55 1885.62
3.316 86260.66 75980.08 78173.71 92073.99 84804.51 65269.71 46705.31 50427.75 58866.05 58464.03 3727.73 700.91 137.37 1874.69
3.324 86274.00 75992.91 78187.16 92087.62 84818.37 65284.10 46720.29 50443.91 58885.54 58483.70 3746.85 718.72 154.94 1891.90
3.332 86272.28 75991.13 78185.17 92084.81 84815.12 65280.21 46716.08 50438.45 58892.42 58491.59 3754.22 726.68 163.86 1901.51
3.341 86283.90 76002.14 78196.66 92095.74 84825.83 65290.88 46727.24 50449.59 58896.89 58495.74 3758.31 730.39 167.57 1905.06
3.349 86259.38 75977.92 78173.28 92072.58 84803.55 65268.61 46706.32 50429.63 58887.30 58487.16 3749.68 722.16 160.02 1897.84
3.357 86274.74 75993.94 78188.53 92087.60 84817.85 65282.16 46719.55 50441.72 58868.59 58468.50 3729.66 701.24 139.34 1876.97
3.366 86273.62 75992.35 78187.30 92085.97 84816.26 65279.95 46717.87 50440.42 58899.46 58500.42 3761.55 732.98 171.57 1909.78
3.374 86256.48 75975.52 78171.02 92069.32 84799.39 65262.87 46701.40 50423.61 58875.48 58475.74 3736.23 707.34 146.23 1883.81
3.382 86267.27 75986.57 78182.04 92081.01 84810.52 65273.55 46712.84 50434.86 58877.15 58477.53 3737.39 707.84 146.27 1883.54
3.391 86256.79 75974.38 78168.43 92065.54 84793.53 65254.13 46691.72 50412.08 58872.48 58473.33 3732.99 703.99 143.61 1881.55
3.399 86274.98 75994.48 78191.23 92090.37 84821.81 65285.27 46727.19 50452.16 58874.18 58475.61 3734.80 705.53 145.64 1883.87
3.407 86270.54 75989.49 78185.71 92083.51 84814.01 65275.97 46716.84 50438.90 58904.31 58506.67 3765.60 735.26 175.39 1913.00
3.416 86270.72 75989.32 78185.35 92082.01 84811.91 65272.73 46713.27 50435.06 58875.81 58477.89 3735.65 705.76 145.91 1884.10
3.424 86278.52 75997.74 78194.34 92091.53 84821.41 65282.29 46723.66 50445.63 58894.72 58497.11 3754.69 724.06 164.29 1902.02
3.432 86267.85 75986.28 78182.49 92078.93 84807.93 65267.81 46709.07 50430.52 58883.86 58487.16 3744.57 713.53 154.65 1892.84
3.441 86271.25 75990.34 78187.10 92083.67 84813.05 65272.86 46715.01 50436.87 58880.69 58484.12 3740.16 709.00 150.27 1888.23
3.449 86267.92 75987.21 78186.51 92080.98 84809.96 65265.66 46711.99 50434.28 58878.18 58484.61 3739.04 707.39 152.06 1890.98
3.457 86254.44 75973.94 78173.17 92066.79 84794.90 65249.84 46696.17 50417.94 58870.78 58477.10 3729.46 696.95 140.64 1878.75
3.466 86273.60 75993.96 78194.14 92088.49 84817.40 65271.99 46720.00 50442.77 58883.35 58490.18 3742.80 708.97 152.84 1889.93
3.474 86282.16 76000.87 78200.98 92094.22 84822.14 65274.47 46721.94 50443.86 58896.35 58503.19 3754.74 721.36 166.12 1903.63
3.482 86269.08 75988.00 78188.08 92081.34 84807.93 65259.99 46707.86 50428.60 58882.25 58489.35 3740.86 707.46 152.13 1889.97
3.491 86280.33 75999.53 78200.98 92093.77 84822.10 65273.87 46723.30 50445.45 58886.36 58494.31 3744.72 710.65 156.02 1894.22
3.499 86250.33 75969.53 78170.55 92062.52 84790.63 65241.97 46691.32 50413.40 58883.90 58491.65 3741.41 707.52 152.73 1890.69
3.507 86275.63 75994.79 78195.28 92086.97 84813.65 65265.17 46713.98 50434.77 58867.16 58475.47 3725.92 691.70 138.38 1876.74
3.516 86272.55 75991.84 78192.06 92083.67 84810.97 65262.13 46711.55 50432.93 58898.14 58506.85 3756.01 721.13 167.82 1905.84
3.524 86262.78 75982.30 78183.70 92075.42 84803.03 65254.44 46704.73 50426.72 58868.28 58477.19 3725.77 691.03 138.07 1876.14
3.532 86271.63 75991.53 78192.64 92084.07 84811.53 65263.94 46714.14 50436.26 58886.90 58497.44 3746.62 712.13 160.33 1899.18
3.541 86252.63 75972.73 78174.78 92066.01 84794.00 65246.02 46697.11 50419.41 58876.15 58486.25 3734.17 698.98 146.83 1885.12
3.549 86265.22 75984.55 78184.90 92075.15 84800.84 65251.56 46701.09 50421.38 58874.56 58484.75 3732.45 697.17 145.82 1884.05
3.557 86273.24 75993.92 78196.17 92087.33 84815.21 65267.12 46719.28 50441.74 58882.45 58492.06 3738.49 701.98 149.53 1887.07
3.566 86266.27 75987.24 78188.19 92078.88 84805.78 65256.30 46707.57 50428.98 58884.87 58496.82 3743.92 708.42 157.16 1896.08
3.574 86266.40 75987.17 78188.66 92079.11 84805.98 65256.48 46708.33 50430.59 58886.01 58497.73 3743.34 707.23 155.68 1893.93
3.583 86269.78 75990.45 78191.81 92081.14 84807.68 65257.04 46709.25 50430.45 58877.96 58489.55 3734.98 698.83 148.10 1886.51
3.591 86269.04 75990.05 78190.18 92079.04 84804.69 65253.10 46704.53 50424.46 58885.60 58496.88 3741.17 703.97 153.02 1891.07
3.599 86266.40 75987.17 78188.66 92079.11 84805.98 65256.48 46708.33 50430.59 58886.01 58497.73 3743.34 707.23 155.68 1893.93
3.608 86269.78 75990.45 78191.81 92081.14 84807.68 65257.04 46709.25 50430.45 58877.96 58489.55 3734.98 698.83 148.10 1886.51
3.616 86269.04 75990.05 78190.18 92079.04 84804.69 65253.10 46704.53 50424.46 58885.60 58496.88 3741.17 703.97 153.02 1891.07
3.624 86269.13 75990.48 78191.54 92080.72 84806.61 65255.43 46708.35 50429.34 58874.25 58486.56 3731.24 694.94 145.33 1884.45
3.633 86247.13 75969.15 78171.34 92060.67 84787.68 65237.23 46691.81 50414.20 58872.64 58486.25 3731.00 694.11 144.24 1883.07
3.641 86270.09 75991.55 78192.71 92081.34 84806.92 65255.05 46708.66 50429.78 58875.03 58488.28 3731.33 693.93 144.48 1883.25
3.649 86266.07 75988.04 78190.02 92078.46 84804.60 65253.33 46707.61 50429.96 58886.63 58500.71 3744.10 706.45 157.89 1896.30
3.658 86266.36 75988.18 78189.82 92077.94 84803.17 65251.49 46705.87 50427.06 58875.46 58489.26 3731.44 693.42 144.37 1883.56
3.666 86252.05 75973.56 78174.76 92061.90 84786.63 65234.50 46688.08 50408.73 58876.84 58491.25 3733.59 695.56 147.14 1886.11
3.674 86258.82 75981.11 78183.16 92071.24 84796.37 65243.65 46698.58 50419.79 58864.77 58479.38 3720.72 682.22 133.26 1872.52
3.683 86265.82 75987.48 78189.91 92077.21 84802.23 65249.93 46706.27 50427.99 58866.56 58481.62 3722.64 684.48 136.50 1875.76
3.691 86269.42 75990.81 78192.88 92079.51 84803.77 65250.04 46705.45 50426.32 58892.89 58507.86 3748.77 708.95 160.49 1899.25
3.699 86262.36 75984.40 78186.67 92073.07 84797.56 65243.71 46699.63 50420.77 58871.57 58486.98 3727.56 688.25 140.99 1879.78
3.708 86269.04 75990.45 78192.17 92078.32 84802.56 65248.01 46704.75 50425.71 58877.65 58493.13 3732.41 692.23 143.81 1882.58
3.716 86252.99 75974.63 78177.44 92064.38 84788.66 65234.57 46693.22 50415.43 58878.61 58495.74 3735.29 695.74 149.22 1889.26
3.725 86259.32 75980.84 78183.03 92068.04 84790.90 65235.06 46692.08 50412.12 58854.96 58471.22 3710.23 670.11 123.49 1863.31
3.733 86267.07 75989.34 78192.62 92078.35 84803.05 65248.50 46708.49 50430.45 58880.93 58498.54 3737.70 698.16 153.20 1893.51
3.741 86263.92 75985.96 78188.61 92073.72 84797.27 65241.48 46700.17 50420.80 58877.49 58495.01 3733.39 691.83 145.85 1884.50
3.750 86262.67 75984.67 78188.08 92071.42 84794.34 65237.66 46698.18 50418.79 58874.11 58493.53 3730.13 688.10 143.34 1883.65
3.758 86263.63 75985.11 78188.55 92071.02 84793.73 65236.63 46696.95 50416.46 58881.02 58499.75 3734.82 691.94 147.12 1886.51
3.766 86263.00 75984.93 78189.11 92072.47 84795.66 65239.00 46700.66 50421.94 58861.53 58482.09 3717.70 675.83 132.52 1873.28
3.774 86264.48 75986.41 78189.82 92072.20 84794.00 65236.20 46696.66 50416.21 58880.69 58501.24 3736.36 693.73 150.38 1891.07
3.783 86255.47 75976.66 78180.37 92062.23 84783.94 65225.74 46686.45 50405.98 58856.10 58476.46 3710.41 667.76 124.14 1865.25
3.791 86265.24 75987.12 78191.12 92073.09 84794.81 65236.85 46698.65 50418.70 58873.71 58494.58 3728.16 684.63 142.02 1882.22
3.799 86260.46 75982.12 78186.89 92068.60 84790.90 65232.58 46694.98 50414.81 58867.05 58488.03 3721.45 677.48 134.76 1875.15
3.808 86278.38 76000.40 78205.62 92087.67 84810.61 65252.25 46715.15 50435.84 58886.14 58507.75 3741.08 696.86 154.70 1894.96
3.816 86266.49 75987.82 78192.06 92073.05 84794.94 65235.98 46697.82 50417.40 58872.86 58494.87 3727.65 683.70 141.40 1882.40
3.824 86244.41 75965.11 78168.79 92048.64 84769.42 65209.29 46670.38 50388.25 58863.81 58485.98 3717.61 673.44 131.38 1872.47
3.833 86266.67 75988.73 78194.31 92076.11 84799.30 65240.07 46704.28 50425.56 58858.76 58481.82 3713.32 668.38 127.45 1868.76
3.841 86276.53 75997.67 78202.27 92082.71 84803.86 65243.22 46706.09 50425.78 58888.55 58511.86 3743.16 698.27 156.98 1898.02
3.849 86251.87 75973.40 78178.27 92058.16 84779.16 65218.72 46681.91 50400.61 58855.07 58477.06 3707.35 661.75 119.94 1860.65
3.858 86256.14 75977.20 78182.76 92062.66 84784.21 65224.87 46689.44 50409.84 58868.21 58491.88 3724.00 678.98 139.16 1880.36
3.866 86260.99 75981.83 78187.63 92067.19 84788.75 65228.65 46693.17 50412.91 58863.32 58487.14 3717.72 672.41 131.83 1873.68
3.874 86256.16 75977.80 78183.21 92063.37 84784.48 65224.85 46690.18 50410.16 58871.10 58495.39 3725.21 679.00 139.41 1880.27
3.882 86263.70 75984.40 78189.51 92068.47 84788.44 65227.93 46691.92 50410.65 58863.07 58487.68 3717.99 672.25 133.02 1874.57
3.891 86258.56 75979.97 78186.13 92065.43 84785.89 65226.84 46692.12 50411.86 58867.32 58491.79 3720.69 673.91 134.60 1876.12
3.899 86256.16 75977.80 78183.21 92063.37 84784.48 65224.85 46690.18 50410.16 58871.10 58495.39 3725.21 679.00 139.41 1880.27
3.907 86263.70 75984.40 78189.51 92068.47 84788.44 65227.93 46691.92 50410.65 58863.07 58487.68 3717.99 672.25 133.02 1874.57
3.916 86258.56 75979.97 78186.13 92065.43 84785.89 65226.84 46692.12 50411.86 58867.32 58491.79 3720.69 673.91 134.60 1876.12
3.924 86278.67 75999.69 78204.84 92082.84 84802.41 65242.04 46706.50 50424.64 58867.99 58493.38 3721.88 675.20 136.39 1877.97
3.932 86252.32 75973.53 78178.91 92056.55 84776.72 65216.51 46681.55 50400.17 58875.52 58499.86 3726.89 679.47 140.17 1881.95
3.941 86275.41 75996.69 78202.72 92080.63 84799.93 65240.00 46704.62 50422.54 58860.19 58486.67 3714.44 666.77 128.21 1869.84
3.949 86249.66 75971.72 78178.00 92055.95 84775.70 65215.95 46681.73 50400.57 58868.68 58494.11 3720.45 673.01 134.94 1877.48
3.957 86246.26 75968.51 78176.21 92054.23 84775.00 65216.13 46683.18 50403.07 58855.14 58482.76 3710.05 662.01 124.61 1866.01
3.966 86268.03 75989.45 78195.43 92071.75 84790.72 65230.62 46695.72 50413.53 58861.66 58488.28 3714.19 665.86 128.52 1870.82
3.974 86269.49 75991.42 78198.29 92074.64 84794.27 65233.79 46699.99 50418.41 58867.14 58493.76 3719.24 670.87 133.51 1875.11
3.982 86258.29 75981.36 78188.84 92065.85 84786.07 65226.39 46693.91 50412.77 58880.24 58508.44 3733.84 684.75 147.54 1889.39
3.991 86257.46 75979.52 78186.49 92062.66 84782.29 65222.17 46688.88 50407.56 58858.65 58486.45 3711.78 662.89 126.22 1868.43
3.999 86265.48 75987.57 78194.36 92070.26 84788.97 65227.71 46694.49 50412.35 58867.10 58495.07 3719.00 669.70 132.64 1874.64
4.007 86266.51 75988.58 78195.68 92071.37 84790.25 65228.63 46696.33 50414.16 58867.12 58495.54 3719.84 670.53 134.83 1877.30
4.016 86242.28 75963.97 78171.27 92046.43 84764.41 65202.14 46670.13 50387.05 58856.61 58484.41 3707.42 657.57 120.81 1862.77
4.024 86274.05 75995.98 78204.24 92079.37 84796.91 65233.90 46702.49 50419.68 58855.16 58483.92 3706.21 655.60 119.36 1861.48
4.032 86259.25 75980.75 78190.09 92065.65 84784.59 65221.94 46692.95 50413.02 58870.94 58501.00 3724.69 674.84 141.20 1884.39
4.041 86258.44 75980.13 78188.91 92063.77 84782.07 65217.50 46687.97 50405.60 58865.60 58495.21 3717.30 665.75 130.94 1872.96
4.049 86253.71 75974.32 78183.97 92057.31 84774.49 65206.83 46680.43 50399.14 58857.98 58489.71 3709.79 657.88 125.19 1868.14
4.057 86264.05 75984.80 78194.63 92067.37 84784.50 65216.47 46690.13 50408.19 58855.88 58487.85 3707.48 655.22 122.69 1865.59
4.066 86270.29 75990.63 78199.97 92072.24 84787.57 65218.66 46691.79 50408.15 58862.56 58494.56 3713.16 660.34 127.54 1870.33
4.074 86244.12 75965.15 78175.00 92047.14 84763.65 65195.17 46670.15 50388.16 58862.20 58494.92 3713.38 660.23 128.43 1872.16
4.082 86254.49 75975.73 78186.56 92058.65 84775.32 65206.88 46682.65 50401.19 58844.30 58477.73 3695.53 642.70 111.18 1854.79
4.091 86262.82 75983.41 78193.49 92065.14 84780.64 65210.37 46686.25 50403.68 58864.03 58497.89 3715.53 661.75 129.19 1872.00
4.099 86250.46 75970.25 78180.43 92051.10 84766.55 65195.28 46671.45 50389.17 58842.26 58475.09 3691.44 637.74 105.86 1849.45
4.107 86265.19 75985.60 78196.42 92067.22 84782.89 65211.59 46688.46 50405.82 58866.49 58501.31 3718.12 664.20 133.53 1877.23
4.116 86257.93 75977.13 78187.16 92057.05 84771.70 65199.32 46675.96 50393.10 58849.77 58483.72 3699.03 644.65 113.32 1856.33
4.124 86269.26 75989.09 78200.22 92070.70 84786.27 65214.39 46692.62 50410.63 58861.96 58497.15 3712.40 658.37 127.94 1871.65
4.132 86253.19 75972.84 78184.39 92054.92 84769.55 65197.36 46676.14 50393.71 58860.08 58496.04 3711.35 657.25 127.45 1871.33
4.141 86256.28 75975.43 78187.05 92056.60 84771.20 65198.79 46677.10 50395.03 58850.27 58486.42 3701.02 646.57 116.81 1861.45
4.149 86267.52 75986.72 78198.70 92067.82 84782.16 65209.25 46688.37 50405.15 58858.60 58494.54 3708.71 653.65 123.81 1867.62
4.157 86252.68 75970.74 78182.47 92050.68 84764.05 65191.14 46669.28 50386.31 58855.00 58491.65 3705.25 650.84 121.86 1867.22
4.166 86253.59 75971.90 78183.76 92052.13 84765.66 65193.51 46672.03 50388.34 58841.39 58477.73 3690.32 634.41 104.52 1848.27
4.174 86279.72 75997.88 78210.05 92078.55 84792.68 65220.76 46700.19 50417.27 58861.24 58498.40 3711.28 655.04 126.73 1871.11
4.182 86243.36 75961.26 78174.11 92042.47 84757.32 65185.58 46666.51 50384.30 58860.15 58498.02 3710.21 654.73 126.98 1871.91
4.191 86248.41 75966.70 78178.80 92046.20 84760.18 65188.28 46668.12 50384.18 58842.67 58480.37 3692.26 635.57 107.40 1851.39
4.199 86279.72 75997.88 78210.05 92078.55 84792.68 65220.76 46700.19 50417.27 58861.24 58498.40 3711.28 655.04 126.73 1871.11
4.207 86243.36 75961.26 78174.11 92042.47 84757.32 65185.58 46666.51 50384.30 58860.15 58498.02 3710.21 654.73 126.98 1871.91
4.216 86248.41 75966.70 78178.80 92046.20 84760.18 65188.28 46668.12 50384.18 58842.67 58480.37 3692.26 635.57 107.40 1851.39
4.224 86250.04 75967.68 78180.39 92047.55 84761.91 65190.38 46671.07 50388.23 58841.75 58479.90 3691.61 634.92 107.89 1852.33
4.232 86265.86 75984.40 78196.77 92063.86 84777.84 65205.81 46685.78 50401.91 58861.71 58500.24 3710.75 653.97 126.53 1871.22
4.240 86257.57 75975.99 78188.70 92055.59 84769.55 65197.60 46678.15 50393.91 58846.76 58485.49 3695.86 638.72 111.67 1856.80
4.249 86254.15 75971.68 78184.03 92049.87 84762.40 65189.78 46669.84 50384.92 58842.04 58479.67 3688.17 629.76 102.01 1846.08
4.257 86261.19 75979.32 78193.47 92060.33 84775.18 65203.84 46687.16 50404.46 58860.28 58500.82 3712.07 654.62 129.95 1875.69
4.265 86270.09 75988.18 78200.71 92067.04 84780.08 65206.92 46688.32 50403.92 58863.03 58502.45 3711.48 653.41 127.87 1872.29
4.274 86242.26 75960.64 78173.48 92039.86 84753.52 65180.17 46662.24 50378.06 58852.59 58491.74 3699.48 640.65 114.64 1859.08
4.282 86247.87 75965.35 78177.95 92043.05 84755.54 65180.93 46663.25 50378.46 58828.52 58468.97 3677.91 620.13 95.98 1841.96
4.290 86257.82 75975.75 78189.60 92055.39 84768.59 65194.09 46678.24 50394.29 58848.19 58488.35 3695.97 637.02 111.13 1856.16
4.299 86270.49 75988.96 78203.28 92069.00 84782.51 65207.84 46692.32 50408.95 58860.84 58502.23 3709.99 650.93 127.00 1872.25
4.307 86258.82 75976.31 78190.20 92054.21 84766.80 65191.19 46674.94 50390.29 58865.17 58506.34 3713.25 654.59 129.89 1875.67
4.315 86241.72 75959.56 78173.01 92037.67 84749.81 65173.37 46657.63 50372.58 58825.88 58466.98 3673.51 614.43 89.97 1836.06
4.324 86262.15 75979.90 78193.93 92058.36 84770.76 65194.14 46678.89 50394.44 58852.17 58494.14 3699.79 639.89 115.92 1860.69
4.332 86265.37 75982.97 78196.46 92060.35 84772.54 65194.90 46680.48 50395.85 58848.28 58490.25 3696.49 637.20 115.02 1861.61
4.340 86252.32 75970.32 78183.94 92048.48 84760.72 65182.74 46669.01 50384.25 58858.78 58499.70 3703.46 642.57 117.93 1863.13
4.349 86245.97 75964.48 78175.72 92038.67 84750.80 65171.63 46659.07 50373.61 58851.14 58495.41 3698.54 637.14 116.05 1862.79
4.357 86257.48 75975.03 78186.31 92048.78 84760.21 65181.17 46668.36 50382.33 58819.76 58464.09 3666.76 605.67 84.91 1831.88
4.365 86263.96 75982.74 78194.63 92057.36 84769.55 65190.83 46679.41 50393.57 58852.95 58496.86 3697.83 635.46 113.10 1859.84
4.374 86262.89 75982.10 78194.11 92057.05 84769.30 65190.90 46680.14 50394.80 58866.14 58511.21 3713.14 650.77 130.56 1877.05
4.382 86246.51 75965.29 78176.46 92038.65 84750.01 65171.56 46660.16 50374.46 58829.68 58473.57 3674.63 612.08 91.55 1838.52
4.391 86250.53 75969.78 78180.26 92042.27 84753.23 65174.89 46662.78 50375.85 58842.93 58486.49 3687.72 624.75 104.92 1851.60
4.399 86270.49 75989.56 78200.71 92062.61 84774.96 65197.04 46687.41 50402.76 58836.50 58479.76 3679.77 617.09 96.94 1844.60
4.407 86250.31 75969.98 78181.91 92043.25 84755.51 65177.55 46667.54 50381.39 58859.34 58504.17 3705.63 642.70 123.47 1870.28
4.416 86256.07 75975.64 78187.45 92048.60 84760.70 65182.89 46672.52 50385.73 58845.68 58489.31 3689.51 625.49 106.39 1853.18
4.424 86248.88 75967.79 78179.65 92039.61 84751.09 65172.14 46661.14 50373.21 58838.80 58482.18 3681.65 617.56 97.34 1844.06
4.433 86259.54 75978.30 78189.91 92049.13 84760.43 65181.26 46671.02 50383.16 58839.98 58484.01 3683.55 619.86 101.63 1849.67
4.441 86254.60 75974.65 78188.28 92049.29 84763.16 65185.31 46677.42 50391.63 58842.71 58486.20 3684.84 619.46 100.63 1847.46
4.449 86257.06 75977.04 78190.47 92050.88 84764.14 65184.84 46676.43 50389.84 58855.74 58500.44 3699.41 634.83 117.03 1864.98
4.458 86259.70 75979.75 78192.93 92052.91 84766.09 65186.05 46679.16 50392.25 58845.04 58489.84 3688.80 623.77 106.42 1853.97
4.466 86244.25 75963.36 78175.90 92035.32 84747.38 65166.49 46658.84 50370.89 58846.56 58491.05 3688.31 623.12 104.67 1852.24
4.475 86251.25 75971.48 78184.88 92044.91 84757.95 65177.20 46671.02 50384.14 58840.32 58485.24 3682.94 617.13 99.93 1847.68
4.483 86262.58 75982.21 78194.78 92053.74 84765.28 65182.81 46676.10 50387.67 58845.12 58491.03 3688.75 623.48 107.49 1855.73
4.491 86242.19 75962.27 78175.47 92034.81 84747.56 65165.53 46660.74 50373.84 58835.65 58480.84 3676.82 611.63 94.35 1842.79
4.500 86251.25 75971.48 78184.88 92044.91 84757.95 65177.20 46671.02 50384.14 58840.32 58485.24 3682.94 617.13 99.93 1847.68
4.508 86262.58 75982.21 78194.78 92053.74 84765.28 65182.81 46676.10 50387.67 58845.12 58491.03 3688.75 623.48 107.49 1855.73
4.516 86242.19 75962.27 78175.47 92034.81 84747.56 65165.53 46660.74 50373.84 58835.65 58480.84 3676.82 611.63 94.35 1842.79
4.525 86261.46 75981.22 78194.40 92053.27 84765.17 65182.92 46680.01 50391.92 58849.33 58496.01 3693.40 626.85 110.95 1858.12
4.533 86252.99 75972.06 78184.55 92042.47 84753.17 65169.55 46667.36 50377.50 58844.23 58489.53 3684.73 618.20 100.81 1848.29
4.541 86257.51 75977.27 78189.78 92047.55 84758.40 65175.07 46674.15 50384.74 58841.57 58487.25 3682.27 615.30 99.00 1846.75
4.550 86259.09 75978.27 78191.72 92049.62 84760.21 65176.46 46675.87 50385.73 58853.93 58500.75 3695.73 628.78 113.95 1862.28
4.558 86247.76 75967.72 78181.84 92039.88 84751.31 65168.77 46669.84 50381.39 58839.51 58486.69 3681.49 614.11 99.24 1847.46
4.566 86256.88 75976.64 78190.34 92048.06 84758.93 65175.94 46676.97 50387.76 58848.05 58495.01 3689.36 621.87 106.91 1855.02
4.575 86259.67 75978.74 78192.71 92049.33 84758.95 65174.80 46674.73 50385.08 58847.54 58494.67 3687.88 620.02 104.63 1853.23
4.583 86259.63 75979.35 78193.60 92049.69 84759.58 65175.27 46675.16 50385.53 58847.40 58494.45 3686.52 618.18 102.55 1850.50
4.591 86242.95 75962.07 78178.00 92034.43 84745.88 65162.22 46664.50 50377.28 58839.60 58488.23 3682.70 615.03 102.39 1851.26
4.600 86247.51 75967.37 78183.68 92039.43 84749.50 65165.62 46667.31 50378.80 58837.32 58484.88 3677.31 608.15 94.30 1842.54
4.608 86259.63 75978.70 78195.75 92050.94 84760.03 65175.23 46676.88 50387.83 58841.15 58489.42 3681.62 612.86 99.64 1847.89
4.616 86251.89 75970.54 78187.32 92042.00 84750.53 65164.92 46666.33 50377.03 58846.87 58495.23 3686.65 618.18 104.54 1853.47
4.625 86255.63 75975.26 78193.78 92049.00 84758.98 65173.64 46676.92 50388.66 58845.71 58494.16 3685.42 615.72 102.66 1851.17
4.633 86262.45 75980.91 78197.91 92051.77 84759.38 65172.59 46674.20 50383.49 58847.14 58496.21 3686.61 616.77 103.96 1852.09
4.641 86245.61 75964.62 78182.22 92036.39 84744.85 65157.48 46660.90 50371.40 58830.93 58479.87 3670.74 601.49 89.74 1839.33
4.650 86250.93 75970.16 78188.57 92041.89 84749.81 65160.61 46665.12 50375.22 58830.53 58481.28 3669.89 598.74 87.93 1837.27
4.658 86264.64 75982.90 78201.58 92053.13 84760.25 65170.02 46673.86 50382.91 58848.79 58499.30 3686.23 614.85 103.82 1852.80
4.666 86250.76 75968.84 78188.19 92040.13 84747.22 65157.37 46661.97 50371.89 58833.93 58485.08 3672.17 601.24 90.77 1840.60
4.675 86261.08 75980.15 78199.75 92051.77 84758.84 65168.68 46673.53 50383.02 58841.97 58493.84 3681.38 609.26 99.58 1849.16
4.683 86258.15 75976.75 78197.42 92049.04 84756.38 65165.77 46671.69 50381.30 58848.92 58501.09 3687.93 615.66 106.30 1856.18
4.691 86256.86 75975.59 78195.61 92046.74 84753.03 65162.29 46667.60 50377.05 58839.56 58491.70 3677.87 605.02 95.53 1844.80
4.700 86254.04 75972.28 78192.97 92043.52 84749.63 65157.93 46664.01 50373.01 58836.59 58489.17 3675.21 602.65 93.92 1843.84
4.708 86243.27 75960.82 78180.86 92030.89 84736.63 65143.82 46650.15 50358.88 58826.22 58479.07 3665.42 593.35 85.94 1836.42
4.716 86255.63 75974.54 78197.15 92048.89 84756.30 65165.01 46674.09 50385.06 58834.95 58488.19 3672.93 598.89 90.08 1838.99
4.725 86251.11 75968.04 78189.20 92039.14 84743.78 65150.44 46657.61 50365.99 58840.12 58492.93 3676.62 602.56 93.68 1842.95
4.733 86253.73 75971.55 78194.09 92044.35 84750.73 65158.15 46666.96 50376.52 58839.89 58494.29 3678.74 606.09 99.33 1850.88
4.741 86259.94 75977.83 78199.75 92049.40 84755.16 65161.84 46670.38 50379.51 58838.33 58493.08 3676.77 602.63 95.17 1845.27
4.750 86258.94 75976.35 78197.56 92046.83 84751.02 65157.08 46665.08 50373.17 58840.16 58494.09 3676.77 602.27 94.57 1844.40
4.758 86252.95 75970.87 78192.82 92042.05 84747.06 65153.21 46662.40 50371.13 58837.10 58491.54 3674.00 599.81 92.60 1842.72
4.766 86258.94 75976.22 78198.45 92047.48 84752.45 65158.26 46667.98 50377.12 58839.40 58494.96 3677.62 603.70 97.03 1847.77
4.775 86253.62 75970.72 78192.84 92041.35 84745.79 65151.56 46661.08 50369.21 58836.50 58491.88 3673.76 598.85 92.72 1843.04
4.783 86253.50 75970.83 78192.91 92041.40 84745.19 65150.24 46660.21 50368.40 58837.53 58493.17 3674.54 599.34 94.12 1844.67
4.791 86250.55 75967.37 78189.73 92038.43 84741.10 65146.17 46656.65 50365.30 58825.72 58481.35 3662.47 587.40 81.49 1832.46
4.800 86253.50 75970.83 78192.91 92041.40 84745.19 65150.24 46660.21 50368.40 58837.53 58493.17 3674.54 599.34 94.12 1844.67
4.808 86250.55 75967.37 78189.73 92038.43 84741.10 65146.17 46656.65 50365.30 58825.72 58481.35 3662.47 587.40 81.49 1832.46
4.816 86252.92 75969.71 78191.90 92041.87 84740.20 65144.63 46655.40 50362.46 58834.64 58490.29 3670.72 594.65 88.76 1838.63
4.825 86251.27 75968.46 78192.30 92043.86 84743.53 65149.48 46662.26 50371.71 58826.93 58483.90 3665.06 589.37 85.58 1836.75
4.833 86252.19 75969.65 78192.03 92043.52 84741.61 65147.06 46659.15 50367.20 58835.16 58491.74 3671.74 595.18 90.52 1840.26
4.841 86271.45 75988.35 78210.30 92062.14 84759.47 65164.45 46675.83 50383.29 58841.41 58498.70 3677.80 601.64 97.27 1847.71
4.850 86263.45 75980.26 78204.02 92055.30 84752.63 65157.97 46669.91 50377.90 58852.68 58510.38 3689.27 612.37 108.12 1858.91
4.858 86245.64 75962.25 78185.28 92035.97 84731.75 65136.34 46647.91 50353.65 58820.98 58478.00 3656.45 579.74 75.41 1826.47
4.866 86250.87 75967.86 78193.51 92045.11 84743.40 65149.19 46663.20 50372.67 58836.92 58495.25 3674.18 597.33 95.13 1846.81
4.874 86256.50 75972.84 78198.05 92049.31 84745.68 65150.22 46662.84 50370.06 58833.84 58491.23 3667.90 589.55 85.65 1835.12
4.883 86252.25 75968.08 78193.82 92044.68 84741.07 65144.81 46657.77 50364.25 58838.02 58496.93 3674.47 596.79 94.44 1845.63
4.891 86253.28 75969.47 78195.88 92046.23 84742.57 65146.68 46660.63 50367.80 58832.27 58491.14 3667.47 589.19 86.84 1837.13
4.899 86257.26 75973.13 78199.90 92049.56 84744.92 65148.12 46661.97 50368.78 58831.96 58490.96 3667.68 589.46 87.80 1839.03
4.908 86252.54 75968.64 78196.73 92046.67 84742.71 65146.51 46661.17 50367.98 58837.06 58496.21 3672.26 593.51 91.55 1842.32
4.916 86247.16 75962.85 78190.31 92039.83 84734.19 65137.05 46651.40 50356.96 58827.44 58486.87 3662.00 583.40 80.87 1831.52
4.924 86264.55 75980.69 78207.97 92057.38 84751.58 65154.40 46669.48 50375.27 58828.36 58488.14 3662.27 583.36 81.67 1832.80
4.933 86263.92 75980.06 78209.13 92059.24 84755.49 65158.53 46675.58 50382.80 58853.13 58513.58 3688.51 609.35 107.98 1858.41
4.941 86238.84 75954.65 78183.09 92032.59 84727.33 65129.45 46645.90 50352.42 58837.55 58498.18 3672.37 593.22 92.78 1843.73
4.949 86252.59 75966.96 78197.24 92044.71 84737.45 65134.37 46656.87 50362.79 58829.88 58494.31 3662.87 580.09 83.19 1834.59
4.961 86250.69 75964.84 78195.39 92042.34 84734.68 65130.84 46653.30 50359.37 58834.06 58498.67 3667.09 584.05 88.18 1839.39
4.973 86250.49 75964.21 78194.81 92041.22 84733.56 65129.27 46652.72 50358.84 58821.01 58485.64 3653.46 570.46 74.61 1826.12
4.985 86269.87 75984.02 78215.06 92061.47 84753.30 65148.96 46672.68 50378.51 58845.57 58511.12 3678.83 595.50 99.89 1851.55
4.997 86245.90 75958.74 78189.64 92035.32 84726.70 65120.98 46644.60 50349.49 58829.90 58495.50 3662.58 579.45 83.68 1835.06
5.009 86245.90 75958.74 78189.64 92035.32 84726.70 65120.98 46644.60 50349.49 58829.90 58495.50 3662.58 579.45 83.68 1835.06
5.021 86247.11 75960.50 78191.74 92038.02 84729.81 65124.51 46649.45 50355.08 58819.11 58484.28 3650.35 565.88 69.60 1820.08
5.033 86260.10 75973.02 78204.37 92050.25 84742.55 65136.47 46662.33 50368.65 58835.98 58502.72 3668.75 584.50 89.47 1841.72
5.045 86254.53 75967.72 78199.75 92045.00 84737.23 65131.11 46656.87 50362.95 58833.75 58500.86 3666.16 582.15 87.91 1840.17
5.057 86235.29 75947.45 78179.76 92025.40 84716.17 65109.76 46635.73 50342.01 58820.29 58487.43 3651.78 567.11 73.09 1825.04
5.069 86253.53 75964.15 78195.61 92040.82 84730.46 65123.22 46648.98 50354.03 58821.97 58489.64 3653.86 568.85 74.92 1826.20
5.080 86247.60 75957.60 78188.73 92033.31 84722.32 65113.98 46639.95 50343.91 58813.79 58480.90 3643.96 559.35 64.89 1817.04
5.092 86270.11 75981.20 78214.39 92060.40 84752.74 65146.06 46675.34 50383.47 58834.46 58502.96 3666.78 582.33 89.88 1842.50
5.104 86261.86 75972.13 78204.73 92049.76 84740.43 65131.91 46659.94 50366.01 58847.76 58516.29 3678.45 592.23 98.30 1849.45
5.116 86253.10 75963.21 78196.21 92040.44 84731.33 65122.34 46651.00 50357.30 58837.12 58505.91 3667.23 581.41 88.22 1840.26
5.128 86249.55 75958.65 78191.79 92035.77 84726.43 65116.71 46645.54 50351.66 58819.17 58488.84 3650.06 564.05 72.26 1824.51
5.140 86239.07 75948.43 78181.53 92025.08 84715.19 65104.84 46634.10 50339.62 58822.53 58492.06 3652.23 565.72 73.58 1825.51
5.152 86241.46 75950.67 78183.65 92026.76 84716.60 65105.42 46635.19 50339.66 58803.86 58473.28 3633.32 546.54 54.11 1805.98
5.164 86260.48 75969.13 78202.03 92044.95 84735.24 65123.93 46654.73 50359.73 58818.77 58488.97 3648.32 562.57 71.35 1824.57
5.169 86235.29 75947.45 78179.76 92025.40 84716.17 65109.76 46635.73 50342.01 58820.29 58487.43 3651.78 567.11 73.09 1825.04
5.173 86253.53 75964.15 78195.61 92040.82 84730.46 65123.22 46648.98 50354.03 58821.97 58489.64 3653.86 568.85 74.92 1826.20
5.178 86247.60 75957.60 78188.73 92033.31 84722.32 65113.98 46639.95 50343.91 58813.79 58480.90 3643.96 559.35 64.89 1817.04
5.183 86270.11 75981.20 78214.39 92060.40 84752.74 65146.06 46675.34 50383.47 58834.46 58502.96 3666.78 582.33 89.88 1842.50
5.188 86261.86 75972.13 78204.73 92049.76 84740.43 65131.91 46659.94 50366.01 58847.76 58516.29 3678.45 592.23 98.30 1849.45
5.192 86253.10 75963.21 78196.21 92040.44 84731.33 65122.34 46651.00 50357.30 58837.12 58505.91 3667.23 581.41 88.22 1840.26
5.197 86249.55 75958.65 78191.79 92035.77 84726.43 65116.71 46645.54 50351.66 58819.17 58488.84 3650.06 564.05 72.26 1824.51
5.202 86239.07 75948.43 78181.53 92025.08 84715.19 65104.84 46634.10 50339.62 58822.53 58492.06 3652.23 565.72 73.58 1825.51
5.206 86241.46 75950.67 78183.65 92026.76 84716.60 65105.42 46635.19 50339.66 58803.86 58473.28 3633.32 546.54 54.11 1805.98
5.211 86260.48 75969.13 78202.03 92044.95 84735.24 65123.93 46654.73 50359.73 58818.77 58488.97 3648.32 562.57 71.35 1824.57
5.216 86252.36 75961.62 78196.55 92040.42 84732.71 65122.63 46654.60 50361.99 58842.04 58512.82 3672.01 584.88 93.63 1845.43
5.221 86257.06 75965.22 78199.48 92041.42 84733.05 65121.92 46653.01 50358.37 58825.43 58495.79 3653.64 566.73 75.97 1827.86
5.225 86251.07 75959.97 78194.11 92035.63 84728.18 65116.53 46647.87 50353.29 58825.10 58495.99 3653.48 566.33 75.46 1827.93
5.230 86269.66 75978.34 78212.89 92053.98 84747.29 65134.86 46666.91 50371.80 58837.84 58509.31 3666.09 578.49 88.00 1840.80
5.235 86245.48 75953.53 78188.06 92027.99 84722.41 65109.40 46641.85 50347.15 58835.20 58507.21 3663.34 575.47 85.76 1838.36
5.240 86251.49 75959.74 78194.61 92034.02 84728.67 65115.55 46648.38 50353.03 58813.56 58485.64 3640.74 552.80 62.88 1815.90
5.244 86254.78 75962.49 78198.25 92036.91 84732.24 65118.68 46651.80 50356.69 58830.75 58502.99 3657.95 569.84 80.51 1833.16
5.249 86247.92 75955.52 78191.01 92029.06 84724.27 65110.36 46643.82 50348.06 58819.00 58491.27 3644.41 556.11 65.96 1819.12
5.257 86268.08 75976.13 78212.35 92047.97 84744.25 65132.02 46666.55 50370.06 58834.22 58507.75 3659.79 570.35 82.54 1835.66
5.266 86246.66 75954.67 78190.92 92027.16 84723.48 65111.17 46646.15 50349.72 58840.65 58514.21 3664.99 575.16 87.40 1839.95
5.274 86240.94 75948.03 78184.39 92019.32 84715.64 65102.52 46637.21 50339.37 58808.65 58482.36 3632.23 541.69 53.69 1806.54
5.282 86262.04 75969.71 78207.19 92042.09 84738.93 65126.79 46662.93 50365.83 58822.91 58497.18 3647.58 556.94 70.27 1823.88
5.291 86253.73 75960.77 78197.58 92032.01 84728.29 65115.26 46650.75 50353.18 58832.03 58506.41 3656.41 565.52 79.13 1832.19
5.299 86252.43 75960.44 78198.20 92032.79 84730.97 65118.05 46654.80 50358.03 58837.37 58512.55 3662.15 571.38 85.20 1838.79
5.307 86239.89 75947.67 78185.28 92019.63 84717.22 65104.08 46641.07 50344.31 58818.64 58494.22 3643.36 553.00 66.99 1820.84
5.316 86254.93 75962.25 78199.39 92032.77 84730.17 65115.66 46652.09 50354.50 58823.02 58498.87 3647.76 555.87 70.27 1823.61
5.324 86252.79 75960.44 78197.85 92031.32 84728.94 65114.68 46651.82 50353.72 58823.60 58499.03 3647.18 554.99 69.80 1823.21
5.333 86251.29 75957.84 78195.16 92027.45 84724.76 65110.14 46646.86 50348.33 58828.72 58504.06 3651.45 559.73 74.12 1827.77
5.341 86241.39 75947.92 78184.30 92016.12 84712.84 65097.51 46633.56 50334.54 58803.77 58478.60 3624.92 532.49 46.25 1799.36
5.349 86263.25 75970.74 78208.13 92040.86 84739.44 65125.65 46664.72 50368.25 58826.62 58504.39 3652.54 560.87 78.72 1833.94
5.358 86252.54 75959.18 78196.48 92028.39 84726.77 65111.57 46649.59 50351.62 58837.53 58513.63 3658.96 564.90 79.28 1831.84
5.366 86254.31 75960.88 78198.67 92030.51 84729.74 65113.72 46652.61 50356.04 58822.80 58499.99 3646.31 553.05 68.89 1822.09
5.374 86268.06 75974.27 78212.08 92043.34 84742.64 65125.90 46664.92 50367.18 58836.05 58513.80 3659.29 565.57 82.03 1836.08
5.383 86233.77 75939.98 78176.86 92007.18 84705.53 65087.32 46625.96 50326.85 58824.72 58501.76 3646.49 552.92 68.89 1822.43
5.391 86252.99 75959.56 78197.18 92028.12 84727.66 65109.42 46650.21 50352.29 58795.15 58472.48 3616.51 522.76 39.85 1794.15
5.399 86236.87 75942.85 78181.28 92012.19 84711.95 65093.98 46635.75 50338.43 58836.07 58515.46 3660.17 566.48 84.67 1838.90
5.408 86233.77 75939.98 78176.86 92007.18 84705.53 65087.32 46625.96 50326.85 58824.72 58501.76 3646.49 552.92 68.89 1822.43
5.416 86252.99 75959.56 78197.18 92028.12 84727.66 65109.42 46650.21 50352.29 58795.15 58472.48 3616.51 522.76 39.85 1794.15
5.424 86236.87 75942.85 78181.28 92012.19 84711.95 65093.98 46635.75 50338.43 58836.07 58515.46 3660.17 566.48 84.67 1838.90
5.433 86257.46 75963.97 78201.58 92032.39 84731.35 65112.82 46653.95 50355.44 58818.41 58496.88 3640.81 546.34 64.31 1818.52
5.441 86249.75 75955.50 78192.46 92022.78 84721.52 65102.63 46643.71 50344.62 58822.10 58500.30 3643.11 548.42 66.27 1820.15
5.449 86263.25 75969.27 78206.52 92035.97 84734.90 65116.00 46657.30 50357.70 58820.18 58499.03 3641.59 546.52 65.09 1819.12
5.458 86256.37 75962.16 78199.37 92028.64 84727.44 65107.66 46648.94 50350.75 58835.85 58514.90 3657.13 561.48 80.06 1834.27
5.466 86239.74 75945.35 78183.36 92012.88 84712.51 65093.06 46635.86 50346.70 58813.12 58492.53 3633.66 538.39 56.73 1811.27
5.474 86265.17 75971.10 78209.33 92038.76 84738.30 65118.70 46663.04 50374.84 58832.21 58512.53 3654.26 558.70 78.77 1833.38
5.483 86252.81 75958.20 78195.50 92024.19 84722.79 65101.53 46645.39 50356.87 58839.83 58519.82 3660.01 563.29 81.87 1836.24
5.491 86250.64 75956.37 78194.27 92022.94 84721.99 65100.48 46645.36 50356.89 58824.49 58505.11 3645.08 548.74 67.90 1822.05
5.499 86262.24 75967.57 78205.16 92033.51 84732.22 65110.21 46655.58 50366.35 58823.94 58504.66 3644.18 546.97 66.88 1821.24
5.508 86242.89 75948.23 78186.47 92014.24 84712.69 65090.18 46636.04 50346.68 58834.91 58516.20 3655.20 558.06 78.54 1833.25
5.516 86240.52 75945.93 78184.21 92012.19 84710.63 65087.63 46634.75 50345.81 58808.69 58489.73 3628.14 530.74 51.12 1806.00
5.524 86246.06 75950.40 78186.96 92013.77 84710.94 65086.65 46633.12 50342.77 58821.25 58502.43 3640.23 542.34 63.05 1817.67
5.533 86257.66 75963.68 78202.36 92030.18 84729.65 65106.43 46655.33 50367.22 58815.55 58498.20 3637.10 539.84 62.00 1817.91
5.541 86254.51 75959.50 78197.22 92023.96 84722.19 65097.24 46645.99 50355.91 58840.21 58521.96 3658.47 559.51 80.33 1834.18
5.549 86251.78 75956.91 78195.19 92021.98 84720.67 65095.97 46648.60 50358.32 58818.21 58501.35 3638.48 540.04 61.98 1817.04
5.558 86238.37 75942.73 78180.41 92005.97 84704.10 65077.19 46644.87 50346.90 58815.11 58498.67 3631.24 530.99 53.98 1809.08
5.566 86254.85 75958.69 78196.39 92021.13 84719.41 65091.74 46659.58 50360.85 58831.29 58516.35 3649.28 548.96 73.25 1828.93
5.574 86253.28 75957.28 78195.70 92020.48 84718.74 65091.05 46660.74 50362.28 58825.79 58510.83 3643.31 542.63 66.59 1821.94
5.583 86245.35 75948.75 78187.07 92011.65 84709.38 65081.22 46651.02 50351.80 58831.78 58517.20 3648.48 547.24 70.97 1826.14
5.591 86250.46 75952.99 78191.10 92014.26 84712.11 65083.54 46653.63 50353.67 58819.60 58505.69 3637.39 536.37 61.22 1817.33
5.600 86251.56 75954.25 78191.97 92015.02 84712.62 65083.09 46653.30 50352.00 58820.31 58506.47 3637.39 535.48 60.28 1815.54
5.608 86249.01 75952.28 78190.63 92014.42 84713.63 65084.21 46656.54 50356.09 58835.74 58521.76 3651.98 549.94 75.03 1830.56
5.616 86245.61 75948.88 78187.27 92010.55 84709.40 65079.83 46652.76 50351.93 58808.76 58495.90 3625.45 523.79 49.75 1806.33
5.625 86252.88 75955.39 78192.06 92013.95 84710.63 65078.87 46650.82 50346.99 58833.14 58520.71 3649.48 546.63 72.11 1827.66
5.633 86245.03 75948.30 78187.41 92010.75 84710.41 65080.14 46655.69 50355.31 58809.97 58497.51 3626.66 524.39 50.67 1806.76
5.641 86254.24 75957.53 78195.72 92017.77 84716.33 65083.76 46658.73 50355.98 58832.07 58519.82 3648.27 544.82 70.45 1825.87
5.650 86240.54 75942.78 78181.46 92003.02 84701.24 65067.98 46644.20 50340.58 58822.57 58510.25 3638.06 534.36 60.89 1816.46
5.658 86247.20 75949.89 78189.13 92010.89 84709.60 65076.70 46654.19 50351.60 58809.92 58499.34 3627.69 524.55 52.41 1808.93
5.666 86244.68 75947.16 78186.94 92008.61 84707.01 65073.28 46651.20 50347.80 58820.18 58509.22 3637.01 532.95 60.35 1815.74
5.675 86248.83 75950.98 78190.22 92011.16 84709.69 65074.94 46653.57 50349.43 58825.28 58515.12 3641.68 537.96 65.04 1821.56
5.683 86243.07 75945.06 78184.17 92005.41 84703.39 65068.39 46647.08 50342.34 58814.66 58504.69 3631.17 527.23 55.28 1811.79
5.691 86246.28 75947.87 78186.34 92006.58 84703.81 65067.43 46646.35 50340.73 58817.48 58507.43 3632.99 528.64 56.91 1812.99
5.700 86245.06 75947.09 78186.96 92007.98 84706.20 65071.07 46651.64 50347.97 58806.97 58497.91 3624.36 521.04 51.05 1809.08
5.708 86243.07 75945.06 78184.17 92005.41 84703.39 65068.39 46647.08 50342.34 58814.66 58504.69 3631.17 527.23 55.28 1811.79
5.716 86246.28 75947.87 78186.34 92006.58 84703.81 65067.43 46646.35 50340.73 58817.48 58507.43 3632.99 528.64 56.91 1812.99
5.725 86245.06 75947.09 78186.96 92007.98 84706.20 65071.07 46651.64 50347.97 58806.97 58497.91 3624.36 521.04 51.05 1809.08
5.733 86265.17 75966.40 78204.66 92024.17 84720.58 65083.27 46662.82 50356.29 58832.79 58523.55 3648.63 543.21 71.15 1826.18
5.741 86252.99 75954.98 78194.96 92015.05 84713.58 65076.84 46658.46 50352.96 58827.71 58518.97 3643.02 537.85 66.05 1822.65
5.750 86243.74 75945.28 78184.73 92003.42 84700.57 65062.28 46642.66 50335.10 58812.47 58504.01 3628.60 523.90 52.79 1809.75
5.758 86240.47 75941.30 78180.68 91999.36 84696.59 65058.51 46640.09 50333.29 58804.27 58495.25 3618.75 513.08 41.98 1798.87
5.766 86253.62 75955.07 78196.33 92015.78 84715.35 65077.98 46662.84 50357.59 58825.50 58518.30 3643.20 537.89 67.73 1824.93
5.775 86251.31 75952.64 78193.00 92011.16 84709.69 65071.07 46655.56 50349.07 58819.40 58512.46 3636.29 530.92 61.65 1818.65
5.783 86252.57 75953.49 78194.36 92012.30 84710.38 65071.23 46656.16 50348.96 58824.81 58517.87 3640.83 534.61 65.65 1822.20
5.791 86248.56 75949.26 78190.43 92008.14 84706.32 65066.80 46652.02 50344.67 58817.61 58511.64 3634.44 528.17 59.23 1816.33
5.800 86251.34 75951.59 78192.57 92009.91 84707.32 65066.67 46652.20 50344.22 58817.81 58511.55 3634.19 527.95 59.32 1816.48
5.808 86249.12 75949.37 78190.60 92007.54 84705.71 65064.99 46651.53 50343.21 58817.25 58510.92 3632.56 525.36 56.53 1813.62
5.816 86260.12 75959.63 78201.11 92017.37 84714.90 65073.48 46660.23 50351.15 58823.40 58518.01 3639.60 532.44 64.37 1821.64
5.824 86236.76 75936.14 78177.80 91993.95 84691.34 65049.03 46635.91 50326.52 58806.03 58500.53 3621.76 514.89 47.48 1804.90
5.833 86245.55 75945.15 78187.68 92004.32 84702.23 65060.32 46649.12 50339.91 58811.40 58507.05 3627.78 520.33 53.02 1810.56
5.841 86247.16 75944.95 78186.42 92000.85 84696.84 65052.96 46640.47 50328.60 58810.17 58505.74 3625.81 517.78 50.89 1807.97
5.849 86254.31 75953.35 78196.37 92013.15 84711.88 65070.15 46661.66 50353.99 58793.72 58488.41 3607.39 499.38 31.63 1789.82
5.858 86247.89 75944.19 78187.59 92001.34 84699.01 65053.84 46645.59 50333.92 58815.15 58512.75 3629.86 519.99 53.96 1811.27
5.866 86258.82 75953.89 78198.05 92011.22 84709.18 65064.25 46657.10 50345.11 58814.75 58513.51 3631.55 521.65 57.35 1815.50
5.874 86256.72 75948.97 78192.12 92003.96 84700.26 65053.84 46645.74 50331.64 58817.86 58516.00 3633.43 523.52 59.25 1816.88
5.883 86245.61 75937.03 78182.04 91995.04 84693.82 65049.19 46643.73 50331.50 58797.98 58496.17 3612.33 502.04 37.17 1795.00
5.891 86266.56 75955.90 78200.22 92012.19 84710.23 65064.83 46659.49 50346.19 58813.63 58513.27 3630.19 520.19 56.95 1815.59
5.899 86253.19 75940.63 78185.78 91997.50 84695.95 65050.30 46645.43 50331.70 58823.47 58523.04 3639.38 528.46 64.95 1822.14
5.908 86266.45 75950.45 78195.21 92006.02 84702.78 65055.24 46649.83 50334.01 58802.70 58502.38 3617.90 507.41 43.81 1801.71
5.916 86254.02 75935.96 78182.13 91993.45 84692.26 65045.79 46642.88 50329.29 58806.68 58507.17 3623.11 512.55 49.49 1808.46
5.924 86272.10 75952.99 78198.34 92008.81 84707.30 65059.65 46655.87 50340.96 58803.71 58504.28 3619.13 507.83 45.11 1803.23
5.933 86262.29 75941.88 78186.54 91996.76 84694.56 65045.95 46642.44 50326.45 58819.33 58519.86 3633.72 521.62 58.05 1815.97
5.941 86269.42 75948.14 78193.24 92003.71 84702.14 65053.77 46651.82 50336.73 58805.52 58507.59 3622.82 511.47 50.18 1809.40
5.949 86269.24 75946.91 78191.45 92001.30 84699.52 65050.08 46647.91 50331.52 58814.59 58516.51 3629.88 518.02 55.45 1813.89
5.958 86264.95 75941.06 78185.37 91994.24 84692.15 65042.48 46640.69 50323.63 58794.25 58496.04 3608.40 496.19 33.80 1791.67
5.966 86272.08 75947.99 78191.99 92000.76 84697.93 65047.26 46645.56 50327.41 58808.91 58511.21 3623.80 511.56 49.91 1808.59
5.974 86269.33 75944.50 78190.43 91999.96 84699.21 65049.54 46650.62 50334.79 58805.43 58509.60 3622.93 510.36 50.78 1809.95
5.982 86269.08 75943.58 78188.15 91995.98 84694.05 65042.82 46642.66 50324.24 58805.90 58508.71 3620.89 507.43 47.12 1805.62
5.991 86261.73 75935.51 78179.43 91987.02 84684.21 65031.39 46631.19 50310.87 58790.65 58493.91 3605.40 492.43 32.86 1792.63
5.999 86269.08 75942.35 78187.99 91996.14 84695.07 65044.14 46646.68 50328.57 58797.96 58501.89 3612.98 499.05 38.56 1797.10
6.007 86269.08 75943.58 78188.15 91995.98 84694.05 65042.82 46642.66 50324.24 58805.90 58508.71 3620.89 507.43 47.12 1805.62
6.016 86261.73 75935.51 78179.43 91987.02 84684.21 65031.39 46631.19 50310.87 58790.65 58493.91 3605.40 492.43 32.86 1792.63
6.024 86269.08 75942.35 78187.99 91996.14 84695.07 65044.14 46646.68 50328.57 58797.96 58501.89 3612.98 499.05 38.56 1797.10
6.033 86286.79 75959.32 78204.71 92012.27 84710.45 65058.75 46661.26 50341.34 58810.35 58515.12 3626.17 512.55 53.60 1812.91
6.041 86278.31 75950.29 78195.79 92003.42 84701.73 65049.32 46652.45 50332.13 58818.35 58523.77 3633.99 519.75 60.66 1819.54
6.049 86277.73 75948.75 78193.71 92000.14 84697.98 65044.83 46647.89 50326.52 58801.47 58507.37 3616.87 502.51 43.23 1802.24
6.058 86269.64 75940.30 78185.51 91992.16 84690.04 65037.30 46641.14 50319.34 58810.73 58516.38 3625.99 511.45 53.09 1812.41
6.066 86268.21 75938.11 78182.89 91988.81 84686.92 65033.56 46637.12 50314.85 58787.28 58493.40 3602.72 487.72 29.44 1788.77
6.074 86275.52 75945.17 78189.96 91995.78 84693.20 65039.37 46643.24 50320.17 58795.37 58501.62 3609.81 494.53 36.86 1796.43
6.083 86271.99 75941.50 78186.13 91991.62 84689.69 65036.11 46640.94 50318.45 58804.96 58511.46 3619.66 503.58 46.42 1805.48
6.091 86260.50 75928.83 78172.30 91976.76 84673.48 65018.79 46622.50 50297.93 58784.02 58491.32 3599.52 483.83 27.07 1786.78
6.099 86286.14 75954.38 78199.61 92004.83 84702.87 65049.23 46654.42 50331.43 58787.77 58494.69 3601.63 485.06 27.60 1787.22
6.108 86294.41 75962.58 78207.95 92012.16 84710.72 65056.12 46661.70 50338.14 58818.03 58526.57 3634.82 519.52 64.31 1825.36
6.116 86264.61 75932.79 78178.42 91982.95 84681.55 65027.95 46634.63 50312.15 58801.23 58509.20 3615.82 500.19 43.14 1803.03
6.125 86284.64 75952.26 78197.47 92001.43 84699.66 65045.54 46651.49 50327.95 58807.01 58515.55 3622.10 505.22 49.69 1809.13
6.133 86267.70 75935.34 78180.64 91984.69 84682.62 65028.69 46635.13 50311.41 58797.96 58506.38 3612.20 494.67 39.03 1798.67
6.141 86268.68 75935.83 78180.84 91984.47 84682.24 65028.24 46635.06 50310.40 58789.25 58498.47 3604.22 487.47 32.48 1792.45
6.150 86277.00 75943.52 78188.86 91991.47 84688.82 65034.97 46641.47 50316.19 58792.87 58501.94 3607.12 489.57 34.67 1794.42
6.158 86270.67 75937.68 78184.84 91986.15 84684.55 65030.14 46639.69 50313.40 58776.73 58488.41 3590.90 472.20 19.54 1780.43
6.166 86291.61 75957.69 78205.16 92005.50 84703.57 65048.25 46657.61 50331.79 58808.78 58520.82 3621.79 501.98 48.84 1808.99
6.175 86289.29 75955.01 78202.88 92003.00 84701.00 65044.81 46654.84 50328.19 58813.45 58525.90 3627.73 508.23 56.77 1817.42
6.183 86267.32 75932.70 78180.93 91980.40 84678.31 65021.29 46632.47 50305.66 58798.97 58511.46 3612.69 492.90 41.17 1801.82
6.191 86276.30 75941.10 78188.82 91987.75 84685.37 65027.62 46638.50 50310.92 58784.22 58497.06 3597.65 477.39 25.66 1786.64
6.200 86271.34 75936.59 78184.37 91983.73 84680.52 65022.61 46633.85 50306.33 58790.74 58503.46 3603.77 482.82 31.47 1792.50
6.208 86287.23 75951.92 78199.92 91998.04 84695.23 65037.23 46648.78 50320.62 58796.89 58510.18 3609.49 488.14 37.17 1797.71
6.216 86284.80 75949.06 78197.49 91995.62 84693.13 65034.66 46646.97 50319.01 58795.46 58509.31 3608.53 487.83 37.35 1798.56
6.224 86265.84 75929.90 78177.64 91974.63 84670.67 65011.28 46622.10 50292.01 58790.01 58503.23 3601.04 479.56 28.72 1789.59
6.233 86281.06 75945.89 78196.15 91993.92 84692.39 65034.23 46649.10 50322.65 58787.14 58501.65 3600.80 479.02 29.06 1790.42
6.241 86288.17 75952.61 78201.33 91998.13 84694.20 65034.32 46647.76 50318.43 58800.06 58514.10 3612.20 489.73 39.56 1799.90
6.249 86302.19 75966.45 78216.11 92013.73 84711.44 65052.32 46667.49 50340.06 58820.14 58535.82 3633.92 512.08 63.84 1825.76
6.258 86269.15 75933.35 78182.89 91979.08 84675.94 65016.08 46630.66 50302.33 58793.96 58509.02 3606.12 483.98 34.31 1795.05
6.266 86276.91 75940.72 78190.67 91986.28 84683.23 65022.81 46636.98 50307.99 58786.70 58502.76 3599.32 476.45 27.76 1788.85
6.274 86275.86 75938.87 78188.53 91983.71 84680.25 65019.57 46633.74 50304.39 58789.42 58505.13 3600.93 478.28 28.45 1789.91
6.283 86275.63 75939.49 78189.49 91984.58 84681.01 65020.96 46635.28 50305.73 58789.69 58506.18 3602.18 479.18 30.93 1793.03
6.291 86279.12 75942.80 78193.76 91988.43 84685.22 65025.65 46640.96 50311.94 58788.15 58505.33 3600.53 477.19 29.46 1791.43
6.299 86266.11 75929.81 78180.41 91974.25 84670.96 65009.91 46624.89 50295.27 58782.99 58500.08 3594.18 470.53 21.99 1783.38
6.308 86275.63 75939.49 78189.49 91984.58 84681.01 65020.96 46635.28 50305.73 58789.69 58506.18 3602.18 479.18 30.93 1793.03
6.316 86279.12 75942.80 78193.76 91988.43 84685.22 65025.65 46640.96 50311.94 58788.15 58505.33 3600.53 477.19 29.46 1791.43
6.324 86266.11 75929.81 78180.41 91974.25 84670.96 65009.91 46624.89 50295.27 58782.99 58500.08 3594.18 470.53 21.99 1783.38
6.332 86306.46 75970.96 78222.10 92016.37 84713.83 65053.03 46669.64 50340.49 58801.23 58519.39 3614.75 491.07 44.90 1806.56
6.341 86281.47 75945.13 78196.04 91989.45 84685.82 65023.66 46640.16 50309.66 58812.94 58530.12 3623.26 498.71 50.22 1811.68
6.349 86281.27 75945.39 78196.68 91989.74 84686.24 65024.11 46641.09 50311.05 58784.37 58503.21 3597.25 473.52 27.16 1789.39
6.357 86276.95 75940.30 78191.61 91983.64 84678.91 65015.46 46631.75 50300.79 58799.44 58517.36 3609.87 484.65 38.18 1799.92
6.366 86274.40 75937.88 78190.65 91982.82 84679.58 65015.68 46633.41 50303.61 58774.52 58493.73 3586.92 462.73 16.88 1779.22
6.374 86278.81 75943.20 78196.95 91989.23 84686.96 65023.88 46643.13 50315.03 58799.62 58519.46 3612.44 487.09 41.86 1803.72
6.382 86273.51 75937.03 78190.43 91981.83 84677.89 65013.65 46631.46 50301.15 58790.47 58509.42 3601.11 475.76 29.84 1791.25
6.391 86278.67 75942.35 78195.75 91986.64 84682.27 65017.94 46636.42 50306.20 58775.10 58494.29 3585.60 459.82 13.93 1775.47
6.399 86290.59 75954.11 78207.06 91997.46 84692.73 65027.57 46645.86 50315.16 58800.67 58521.38 3613.20 487.83 44.06 1806.24
6.407 86292.58 75955.34 78208.58 91998.37 84693.20 65027.77 46645.83 50315.05 58789.98 58509.58 3599.55 472.61 27.49 1789.01
6.415 86294.07 75957.66 78211.77 92002.46 84698.49 65033.59 46653.08 50322.36 58820.47 58541.72 3632.27 506.07 62.99 1825.96
6.424 86272.95 75935.63 78189.29 91978.75 84675.16 65009.47 46629.05 50298.44 58775.68 58497.04 3586.47 460.22 16.65 1779.40
6.432 86279.92 75942.78 78196.84 91985.74 84681.80 65015.99 46635.80 50304.52 58793.11 58514.72 3603.75 476.72 33.24 1795.56
6.440 86290.90 75954.22 78208.82 91997.81 84694.47 65028.65 46648.92 50318.02 58791.26 58512.69 3601.51 474.26 31.34 1794.29
6.449 86281.85 75944.43 78198.85 91987.73 84684.03 65017.72 46638.23 50307.81 58800.09 58522.70 3610.61 483.27 40.26 1803.23
6.457 86289.83 75951.52 78205.24 91991.38 84685.98 65015.95 46637.05 50304.68 58786.29 58509.27 3594.41 465.27 22.87 1785.99
6.465 86300.06 75962.36 78217.56 92005.39 84702.14 65033.45 46657.03 50327.08 58798.54 58523.51 3609.83 481.14 40.52 1803.25
6.474 86291.79 75953.22 78207.61 91994.30 84689.91 65020.29 46643.11 50311.81 58809.36 58534.14 3619.64 490.78 49.73 1813.06
6.482 86299.37 75961.00 78214.25 91999.80 84694.31 65023.86 46645.81 50313.02 58785.00 58508.73 3593.22 463.17 22.71 1785.21
6.490 86299.66 75961.62 78217.07 92003.87 84699.97 65030.79 46655.04 50324.22 58815.67 58540.87 3626.03 496.57 56.44 1819.59
6.499 86280.42 75941.71 78196.57 91982.37 84677.08 65007.37 46630.61 50298.40 58789.13 58514.83 3598.47 468.96 28.99 1792.32
6.507 86299.66 75961.02 78216.49 92001.81 84696.75 65026.66 46650.73 50318.63 58795.88 58521.83 3605.11 474.62 35.34 1798.91
6.516 86300.91 75961.26 78216.87 92001.28 84695.68 65025.05 46649.36 50316.95 58800.98 58527.19 3610.61 480.67 41.08 1804.86
6.524 86294.61 75955.79 78211.35 91995.89 84690.42 65019.30 46644.07 50311.39 58795.08 58521.43 3603.68 473.03 33.55 1796.72
6.532 86294.90 75955.52 78211.15 91994.91 84689.66 65017.51 46642.70 50309.37 58806.68 58533.14 3615.28 484.00 45.35 1808.86
6.541 86287.86 75948.30 78204.04 91987.69 84682.04 65009.51 46634.48 50301.10 58782.18 58509.00 3591.08 461.03 22.91 1787.54
6.549 86316.60 75977.98 78234.53 92018.80 84714.68 65042.50 46670.17 50338.63 58803.95 58531.35 3612.98 480.74 42.45 1805.73
6.557 86290.76 75950.40 78205.92 91988.16 84682.47 65008.10 46633.29 50298.02 58813.70 58540.83 3621.12 488.72 50.31 1813.75
6.566 86291.68 75952.57 78210.41 91993.92 84690.92 65017.72 46646.19 50314.63 58778.32 58506.03 3586.45 454.93 17.81 1782.06
6.574 86300.04 75960.48 78217.05 91999.80 84695.83 65021.45 46649.52 50316.55 58809.63 58539.15 3620.16 488.21 51.59 1815.48
6.582 86318.84 75979.23 78235.80 92017.84 84713.67 65038.41 46665.44 50331.26 58808.18 58536.16 3614.61 481.41 43.83 1807.30
6.591 86282.20 75943.09 78200.93 91983.35 84681.17 65007.25 46635.93 50303.65 58803.35 58533.68 3613.43 481.32 46.18 1811.14
6.599 86288.02 75948.68 78205.45 91986.57 84683.16 65008.17 46636.45 50301.98 58789.36 58518.14 3596.69 463.02 25.44 1789.26
6.607 86318.84 75979.23 78235.80 92017.84 84713.67 65038.41 46665.44 50331.26 58808.18 58536.16 3614.61 481.41 43.83 1807.30
6.616 86282.20 75943.09 78200.93 91983.35 84681.17 65007.25 46635.93 50303.65 58803.35 58533.68 3613.43 481.32 46.18 1811.14
6.624 86288.02 75948.68 78205.45 91986.57 84683.16 65008.17 46636.45 50301.98 58789.36 58518.14 3596.69 463.02 25.44 1789.26
6.632 86291.75 75952.75 78210.27 91991.17 84688.44 65013.63 46642.17 50308.19 58784.02 58512.73 3590.38 456.67 19.92 1784.07
6.641 86307.28 75967.52 78225.23 92005.84 84703.14 65028.27 46657.23 50323.10 58806.41 58536.60 3614.86 481.59 46.49 1811.03
6.649 86300.82 75961.31 78219.10 91999.20 84696.48 65021.90 46651.18 50317.20 58804.87 58535.11 3611.89 478.15 41.95 1806.74
6.657 86322.71 75983.41 78241.21 92021.53 84718.63 65043.42 46672.97 50338.48 58814.10 58545.59 3622.48 487.80 53.35 1817.89
6.666 86289.83 75950.65 78208.78 91988.98 84685.73 65010.61 46640.45 50305.89 58808.31 58539.29 3615.06 480.34 45.66 1809.82
6.674 86297.81 75958.45 78216.98 91996.27 84693.31 65017.89 46648.14 50312.91 58797.11 58528.38 3603.84 469.21 34.58 1798.78
6.682 86289.51 75948.88 78206.32 91984.69 84680.01 65002.87 46631.33 50293.84 58790.90 58522.41 3597.63 463.02 29.24 1794.11
6.691 86303.19 75963.95 78223.66 92003.18 84701.71 65026.41 46659.20 50326.34 58798.59 58530.30 3604.89 469.50 35.11 1799.72
6.699 86301.49 75962.58 78221.92 92000.47 84698.20 65021.67 46653.41 50318.43 58803.46 58535.93 3610.23 474.44 40.88 1804.99
6.707 86296.02 75956.15 78214.43 91992.31 84689.33 65011.39 46642.70 50307.59 58797.29 58529.41 3602.79 466.91 33.33 1797.48
6.716 86308.60 75969.35 78229.07 92007.63 84705.53 65028.22 46661.46 50326.56 58807.42 58541.07 3614.52 478.71 45.91 1811.27
6.724 86299.12 75959.43 78217.94 91995.87 84692.55 65013.51 46646.12 50310.40 58804.11 58537.32 3610.28 473.99 41.42 1806.27
6.732 86304.65 75964.91 78223.55 92001.28 84698.09 65017.92 46651.11 50315.30 58794.83 58528.11 3599.86 463.24 30.06 1794.85
6.741 86311.62 75972.01 78231.98 92009.32 84707.19 65027.06 46661.17 50325.65 58810.97 58544.83 3616.91 480.00 48.59 1813.71
6.749 86309.99 75969.71 78229.14 92005.41 84702.16 65021.27 46655.35 50319.21 58807.95 58541.79 3612.91 476.09 44.01 1808.39
6.757 86304.65 75964.91 78223.55 92001.28 84698.09 65017.92 46651.11 50315.30 58794.83 58528.11 3599.86 463.24 30.06 1794.85
6.766 86311.62 75972.01 78231.98 92009.32 84707.19 65027.06 46661.17 50325.65 58810.97 58544.83 3616.91 480.00 48.59 1813.71
6.774 86309.99 75969.71 78229.14 92005.41 84702.16 65021.27 46655.35 50319.21 58807.95 58541.79 3612.91 476.09 44.01 1808.39
6.782 86302.16 75963.01 78223.71 92000.74 84697.80 65017.20 46652.47 50317.02 58810.41 58545.23 3616.67 479.36 47.90 1813.13
6.791 86312.60 75973.33 78233.81 92009.77 84706.34 65024.42 46659.58 50323.86 58801.58 58537.01 3607.62 470.53 39.61 1804.46
6.799 86307.22 75967.77 78228.24 92003.80 84700.33 65017.65 46653.01 50316.57 58807.73 58542.88 3612.35 474.59 43.27 1808.43
6.808 86301.54 75962.58 78223.51 91999.33 84695.41 65012.64 46648.45 50311.72 58799.06 58534.88 3604.38 466.82 35.61 1801.51
6.816 86297.00 75956.03 78215.86 91989.30 84682.47 64997.40 46631.37 50291.74 58794.30 58529.59 3597.74 459.62 28.48 1793.82
6.824 86311.04 75972.75 78236.51 92013.15 84711.55 65029.36 46668.94 50334.92 58789.83 58526.61 3595.88 458.01 28.34 1794.49
6.833 86319.11 75980.35 78243.38 92018.65 84715.64 65031.86 46669.73 50333.98 58833.95 58570.35 3638.33 498.96 68.66 1834.27
6.841 86303.80 75964.21 78226.46 92000.61 84696.06 65011.52 46648.65 50312.08 58800.15 58536.34 3603.35 464.07 33.77 1799.43
6.849 86330.10 75991.24 78254.04 92028.70 84724.96 65040.78 46679.54 50343.48 58815.35 58552.63 3620.67 481.34 53.22 1818.60
6.858 86323.60 75984.60 78246.95 92020.79 84716.33 65031.48 46669.95 50332.55 58831.96 58569.15 3635.60 496.03 66.85 1832.80
6.866 86307.37 75968.55 78231.60 92005.32 84701.00 65016.58 46655.60 50318.43 58806.95 58544.20 3610.37 471.02 41.57 1807.25
6.875 86319.80 75980.78 78243.47 92016.68 84712.28 65027.44 46666.15 50328.53 58815.06 58552.27 3617.90 477.97 49.40 1814.96
6.883 86308.42 75969.47 78232.65 92005.50 84701.49 65016.53 46655.56 50317.44 58812.18 58549.95 3614.95 475.42 46.69 1812.61
6.891 86321.14 75982.70 78246.19 92019.20 84714.65 65029.47 46669.30 50330.83 58807.73 58546.21 3611.95 471.78 44.28 1810.85
6.900 86320.67 75981.60 78244.40 92016.25 84711.41 65025.02 46664.09 50325.29 58822.62 58560.43 3624.29 483.33 55.16 1821.09
6.908 86311.69 75973.07 78237.59 92008.85 84704.55 65016.89 46658.19 50319.57 58805.88 58545.50 3606.86 465.21 38.15 1804.75
6.916 86323.31 75985.78 78251.69 92023.56 84720.29 65033.12 46676.21 50338.36 58823.04 58564.57 3627.31 485.88 60.46 1826.65
6.925 86322.41 75984.31 78249.64 92020.79 84716.49 65028.04 46670.80 50331.79 58823.69 58564.95 3626.48 484.03 58.27 1824.57
6.933 86329.92 75991.42 78256.63 92027.23 84722.28 65032.89 46675.09 50335.59 58822.33 58563.83 3624.65 482.28 57.22 1824.08
6.941 86320.92 75982.52 78247.98 92018.98 84714.05 65023.68 46667.13 50327.70 58819.93 58561.10 3621.79 478.80 53.76 1820.08
6.950 86323.64 75984.69 78250.13 92019.67 84714.41 65023.04 46666.71 50327.86 58815.29 58558.11 3619.11 476.43 52.73 1819.25
6.958 86308.76 75970.45 78236.05 92005.77 84700.93 65009.36 46653.54 50314.40 58800.80 58543.85 3604.02 461.81 37.46 1804.50
6.966 86312.33 75972.91 78238.44 92007.25 84701.24 65008.17 46652.27 50312.30 58806.77 58549.08 3608.38 464.78 40.72 1807.25
6.975 86312.51 75973.40 78239.47 92008.25 84702.94 65009.78 46655.13 50316.75 58802.88 58546.06 3604.69 460.89 36.68 1803.74
6.983 86317.32 75978.92 78245.01 92013.66 84708.42 65015.08 46660.94 50322.74 58802.50 58546.62 3606.54 462.52 40.23 1806.80
6.991 86307.08 75967.63 78233.34 92001.17 84695.52 65001.22 46646.97 50307.59 58816.13 58560.83 3619.82 476.05 53.73 1821.15
6.999 86299.44 75959.77 78224.56 91991.55 84684.05 64989.37 46634.43 50294.31 58772.79 58516.91 3575.03 430.67 8.47 1775.47
7.008 86324.43 75985.52 78251.42 92019.54 84713.69 65019.44 46666.60 50327.81 58812.92 58557.66 3615.37 470.46 48.88 1815.92
7.016 86276.86 75937.66 78203.48 91971.08 84665.35 64969.97 46617.89 50279.56 58785.71 58531.08 3588.33 443.24 20.90 1788.12
7.024 86310.10 75971.17 78237.30 92004.63 84698.43 65002.83 46650.71 50312.10 58777.02 58523.21 3581.06 436.57 16.72 1784.88
7.033 86298.77 75958.80 78225.43 91992.25 84685.60 64989.35 46636.98 50297.75 58803.48 58549.50 3606.21 460.42 38.78 1805.71
7.041 86261.98 75922.93 78190.05 91956.75 84650.75 64954.68 46603.39 50264.42 58764.23 58510.50 3565.97 420.03 -1.43 1765.70
7.049 86277.13 75937.41 78204.69 91970.25 84663.85 64967.40 46615.50 50276.16 58757.71 58504.37 3560.45 414.78 -5.43 1761.83
7.058 86289.33 75948.81 78216.71 91980.04 84672.16 64974.17 46623.46 50283.04 58762.80 58511.26 3563.83 416.73 -1.97 1766.12
7.066 86278.40 75939.02 78209.25 91974.01 84668.65 64972.34 46624.58 50285.88 58779.05 58528.60 3581.62 434.14 16.45 1784.23
7.074 86272.88 75932.63 78202.18 91965.40 84659.22 64961.59 46612.84 50272.81 58768.19 58517.34 3569.08 421.49 3.58 1770.97
7.083 86277.06 75937.03 78206.38 91969.02 84662.48 64964.56 46615.57 50275.06 58760.57 58510.59 3561.64 414.22 -4.16 1763.89
7.091 86267.41 75926.89 78196.64 91959.21 84652.94 64954.88 46606.54 50266.97 58764.50 58514.39 3564.81 416.64 -0.60 1767.46
7.099 86267.99 75928.03 78198.03 91960.44 84654.59 64956.29 46608.73 50269.27 58756.90 58507.86 3558.76 410.87 -5.59 1762.41
7.108 86271.81 75931.31 78201.24 91963.53 84657.57 64956.96 46609.38 50269.25 58758.51 58509.51 3559.90 411.16 -5.16 1762.77
7.116 86271.16 75930.71 78200.98 91962.90 84657.05 64954.95 46607.92 50267.82 58761.84 58513.20 3562.51 413.57 -2.48 1765.83
7.124 86274.98 75934.96 78205.27 91966.50 84660.32 64957.50 46610.41 50269.30 58752.54 58503.72 3551.98 403.18 -13.32 1754.72
7.133 86262.09 75921.57 78192.41 91953.62 84648.13 64945.14 46599.39 50259.39 58756.68 58508.60 3557.01 407.63 -7.85 1759.89
7.141 86265.55 75924.34 78194.90 91955.17 84649.34 64945.77 46599.54 50258.23 58756.37 58507.99 3555.34 404.79 -10.91 1755.80
7.149 86279.61 75939.29 78211.06 91972.38 84668.03 64965.35 46621.38 50282.44 58737.93 58490.11 3537.66 388.94 -25.24 1744.62
7.158 86263.43 75923.56 78195.68 91956.66 84652.67 64949.01 46605.00 50265.45 58794.34 58548.79 3596.42 445.07 30.93 1797.84
7.166 86259.16 75918.28 78189.64 91949.35 84644.16 64939.22 46593.98 50253.20 58739.20 58491.83 3537.86 386.24 -28.79 1738.56
7.174 86275.30 75934.69 78207.06 91967.55 84663.36 64958.42 46615.46 50276.27 58759.54 58514.32 3561.06 410.53 -2.32 1766.75
7.183 86248.48 75907.73 78179.81 91939.77 84635.10 64929.09 46585.73 50245.72 58753.57 58507.59 3552.83 402.02 -12.41 1755.51
7.191 86272.82 75932.36 78204.40 91963.70 84658.86 64951.80 46608.66 50268.67 58739.60 58493.98 3539.47 388.09 -25.15 1742.94
7.199 86256.59 75915.84 78188.79 91947.41 84642.30 64934.88 46591.90 50251.57 58763.54 58517.81 3561.91 410.27 -3.29 1764.31
7.208 86248.48 75907.73 78179.81 91939.77 84635.10 64929.09 46585.73 50245.72 58753.57 58507.59 3552.83 402.02 -12.41 1755.51
7.216 86272.82 75932.36 78204.40 91963.70 84658.86 64951.80 46608.66 50268.67 58739.60 58493.98 3539.47 388.09 -25.15 1742.94
7.224 86256.59 75915.84 78188.79 91947.41 84642.30 64934.88 46591.90 50251.57 58763.54 58517.81 3561.91 410.27 -3.29 1764.31
7.233 86258.78 75918.30 78191.27 91949.80 84644.36 64937.16 46595.21 50254.50 58733.43 58488.41 3532.47 381.03 -31.85 1737.11
7.241 86262.36 75921.75 78195.30 91953.31 84648.67 64940.65 46598.65 50258.21 58759.81 58515.06 3558.53 406.35 -6.15 1762.12
7.249 86249.82 75909.07 78182.51 91940.44 84635.08 64926.03 46584.86 50244.49 58737.70 58492.66 3535.06 382.28 -30.47 1738.00
7.258 86259.00 75917.74 78190.20 91947.23 84640.71 64930.54 46588.10 50245.63 58739.45 58495.14 3537.66 385.70 -26.44 1742.59
7.266 86263.12 75922.48 78197.22 91955.43 84650.91 64941.70 46601.98 50262.08 58754.56 58511.23 3553.53 400.34 -11.62 1757.14
7.274 86254.78 75913.59 78187.03 91944.15 84638.30 64927.26 46586.71 50245.05 58734.93 58491.56 3533.27 380.34 -30.17 1739.50
7.283 86252.59 75911.29 78185.93 91943.19 84638.50 64927.75 46588.46 50248.17 58747.27 58504.10 3544.79 390.80 -21.03 1747.21
7.291 86235.29 75893.83 78168.77 91925.55 84620.96 64910.18 46571.29 50230.92 58731.20 58488.26 3529.03 376.36 -34.22 1734.92
7.299 86241.43 75900.04 78175.14 91931.72 84626.34 64914.54 46575.76 50234.52 58724.16 58482.00 3522.48 368.51 -41.37 1727.10
7.308 86256.63 75914.53 78189.44 91944.79 84638.97 64926.59 46587.36 50245.27 58741.90 58498.74 3537.83 383.35 -28.27 1739.75
7.316 86242.69 75901.14 78176.57 91931.92 84626.72 64914.00 46575.72 50234.63 58727.71 58485.89 3525.74 373.16 -35.74 1734.43
7.325 86244.38 75902.46 78178.15 91933.44 84627.97 64914.50 46576.92 50235.39 58734.75 58492.01 3530.79 375.69 -34.73 1733.58
7.333 86243.02 75901.50 78177.71 91933.04 84627.57 64914.27 46577.46 50236.08 58731.13 58489.96 3528.07 373.94 -35.29 1733.80
7.341 86252.74 75911.40 78187.68 91943.14 84638.05 64924.40 46588.43 50247.06 58739.31 58499.01 3537.21 382.77 -25.44 1743.64
7.350 86242.08 75900.22 78175.92 91930.47 84624.38 64909.94 46573.35 50231.34 58741.88 58500.73 3537.50 382.24 -26.87 1741.65
7.358 86257.15 75915.64 78192.55 91945.78 84640.62 64925.11 46591.05 50249.74 58732.85 58493.49 3529.05 373.21 -33.55 1735.75
7.366 86245.88 75904.71 78181.95 91934.89 84629.47 64912.86 46578.87 50236.95 58752.95 58513.65 3547.49 390.42 -17.05 1751.37
7.375 86246.80 75905.12 78182.87 91935.63 84629.61 64913.00 46579.05 50236.86 58735.09 58496.21 3529.63 372.87 -33.44 1735.21
7.383 86241.75 75900.80 78179.12 91931.56 84626.43 64909.64 46576.16 50234.72 58733.34 58494.92 3528.49 371.62 -34.00 1734.94
7.391 86246.04 75905.36 78183.83 91936.37 84631.13 64914.16 46581.04 50239.55 58730.95 58491.54 3523.17 365.47 -40.97 1727.28
7.399 86250.51 75910.01 78188.99 91941.73 84636.36 64919.32 46587.18 50245.92 58751.11 58514.25 3546.44 389.26 -15.22 1753.83
7.408 86233.37 75892.91 78172.32 91924.77 84619.82 64902.72 46570.75 50229.56 58735.69 58498.07 3528.54 371.75 -33.24 1735.55
7.416 86243.76 75902.93 78181.64 91933.28 84628.02 64910.47 46578.40 50236.40 58731.31 58493.82 3524.00 366.03 -38.09 1730.70
7.424 86253.15 75912.22 78190.78 91942.25 84637.12 64918.61 46586.67 50244.04 58741.14 58504.37 3533.97 376.02 -27.85 1741.00
7.433 86257.66 75917.21 78196.91 91947.79 84642.30 64923.15 46591.45 50248.26 58752.72 58516.00 3544.45 386.19 -17.23 1751.33
7.441 86225.30 75884.17 78164.34 91914.87 84609.78 64890.13 46559.20 50217.17 58726.03 58488.61 3516.33 358.12 -45.51 1724.10
7.449 86241.64 75901.03 78181.82 91932.93 84628.38 64908.75 46579.07 50238.00 58733.05 58497.69 3526.79 368.38 -33.21 1736.22
7.458 86249.37 75909.14 78190.27 91940.48 84634.88 64914.23 46583.94 50241.56 58740.18 58503.43 3529.63 369.14 -34.67 1733.42
7.466 86268.75 75927.60 78208.37 91957.87 84651.96 64930.68 46600.59 50258.17 58755.45 58519.80 3547.38 387.94 -13.72 1755.15
7.474 86231.76 75891.39 78172.68 91922.33 84616.86 64895.59 46566.13 50223.70 58739.29 58502.27 3527.02 366.95 -36.30 1732.39
7.482 86241.90 75902.01 78184.44 91934.74 84630.23 64909.60 46581.59 50241.04 58740.05 58506.05 3532.63 372.80 -27.69 1742.01
7.491 86241.23 75900.38 78182.36 91931.70 84626.81 64905.17 46576.68 50235.32 58740.52 58505.74 3530.84 370.03 -30.98 1738.00
7.499 86247.78 75907.26 78188.57 91937.53 84631.66 64909.38 46580.95 50238.47 58737.28 58502.38 3526.26 365.18 -35.72 1732.75
7.507 86241.90 75902.01 78184.44 91934.74 84630.23 64909.60 46581.59 50241.04 58740.05 58506.05 3532.63 372.80 -27.69 1742.01
7.516 86241.23 75900.38 78182.36 91931.70 84626.81 64905.17 46576.68 50235.32 58740.52 58505.74 3530.84 370.03 -30.98 1738.00
7.524 86247.78 75907.26 78188.57 91937.53 84631.66 64909.38 46580.95 50238.47 58737.28 58502.38 3526.26 365.18 -35.72 1732.75
7.532 86244.34 75903.60 78186.00 91934.94 84630.05 64907.79 46580.25 50239.01 58743.65 58509.33 3533.27 372.58 -27.67 1741.69
7.541 86252.45 75911.73 78194.29 91942.87 84637.50 64914.88 46587.52 50245.83 58737.68 58503.88 3527.55 366.81 -33.71 1736.22
7.549 86252.12 75911.17 78194.14 91941.96 84635.93 64912.19 46585.24 50243.06 58761.93 58528.62 3551.20 390.10 -9.79 1759.55
7.558 86238.75 75897.90 78180.97 91928.28 84621.96 64896.70 46569.43 50226.20 58727.35 58493.06 3514.63 352.58 -48.08 1721.04
7.566 86245.14 75904.38 78187.72 91935.43 84629.58 64904.50 46578.62 50237.02 58735.78 58503.48 3526.70 365.16 -33.33 1737.47
7.574 86253.15 75912.31 78195.95 91943.05 84637.00 64911.54 46585.57 50242.32 58741.86 58509.29 3530.64 368.67 -30.13 1739.64
7.583 86241.81 75901.83 78186.69 91934.24 84629.63 64905.31 46581.55 50240.75 58739.22 58506.43 3527.19 365.34 -33.57 1737.13
7.591 86251.00 75910.50 78194.87 91941.35 84635.53 64910.00 46585.15 50242.50 58755.38 58523.46 3543.91 381.32 -17.93 1751.64
7.599 86248.01 75907.69 78192.55 91939.36 84633.83 64909.40 46585.46 50243.37 58742.64 58510.21 3529.85 366.59 -32.52 1736.78
7.608 86259.72 75919.29 78204.19 91950.43 84644.72 64919.68 46595.23 50252.62 58753.68 58521.36 3540.49 377.72 -20.34 1749.18
7.616 86248.83 75908.16 78192.73 91938.02 84632.35 64906.34 46582.00 50239.37 58747.27 58516.00 3535.17 372.51 -25.59 1744.69
7.624 86271.21 75931.07 78214.72 91959.66 84653.92 64927.19 46602.72 50259.33 58757.68 58525.99 3543.98 380.18 -17.79 1751.55
7.633 86249.24 75908.98 78193.96 91939.94 84634.77 64908.66 46585.75 50244.11 58758.78 58528.24 3546.39 382.33 -14.04 1756.24
7.641 86244.41 75904.53 78189.40 91934.67 84629.11 64901.89 46578.33 50235.43 58742.66 58511.37 3528.80 364.29 -32.90 1736.44
7.649 86255.54 75915.55 78200.39 91945.13 84639.82 64912.73 46589.69 50246.77 58742.55 58512.64 3530.17 366.32 -29.39 1740.69
7.658 86245.73 75906.61 78192.93 91936.61 84631.95 64903.81 46582.47 50239.73 58742.69 58513.80 3528.20 362.61 -31.85 1739.08
7.666 86270.34 75931.71 78218.66 91962.48 84658.10 64929.83 46608.46 50265.56 58763.36 58535.11 3549.37 383.27 -9.59 1761.45
7.674 86238.10 75898.99 78185.96 91929.28 84624.64 64895.05 46573.73 50230.58 58761.84 58533.61 3545.93 378.88 -15.89 1753.45
7.683 86238.39 75899.46 78186.85 91929.64 84624.84 64894.31 46573.91 50230.76 58725.72 58497.71 3510.61 344.31 -49.00 1721.82
7.691 86256.10 75916.98 78204.66 91947.19 84642.08 64911.28 46590.83 50247.06 58745.21 58517.40 3529.88 362.25 -31.36 1739.19
7.699 86257.30 75917.72 78205.47 91947.34 84641.90 64910.38 46589.53 50246.14 58756.39 58528.62 3540.63 373.41 -19.27 1751.73
7.708 86255.78 75916.72 78204.84 91946.65 84641.45 64909.35 46589.37 50245.00 58748.77 58520.71 3531.93 364.22 -28.95 1741.42
7.716 86253.84 75914.88 78203.77 91945.76 84641.14 64909.49 46589.93 50246.50 58755.47 58528.40 3539.82 371.91 -20.12 1751.01
7.724 86235.56 75896.85 78186.13 91927.94 84623.84 64891.67 46572.47 50229.44 58739.22 58512.49 3522.90 355.68 -36.57 1734.67
7.733 86264.37 75925.68 78215.39 91957.11 84653.48 64921.29 46603.41 50261.47 58753.12 58527.10 3537.61 369.38 -22.62 1747.79
7.741 86248.50 75909.63 78199.46 91940.57 84636.45 64903.68 46585.51 50242.07 58764.86 58539.20 3548.97 381.28 -9.86 1760.42
7.749 86256.19 75917.57 78207.39 91948.77 84644.18 64910.90 46592.73 50249.18 58743.13 58517.69 3527.04 358.39 -32.37 1738.50
7.758 86266.78 75928.00 78217.54 91958.23 84652.99 64919.03 46600.35 50255.68 58763.32 58537.48 3545.95 376.34 -14.48 1756.09
7.766 86250.40 75912.09 78201.02 91941.00 84635.46 64900.84 46581.86 50236.44 58748.79 58523.21 3530.97 361.83 -29.24 1742.14
7.774 86256.54 75919.06 78209.47 91949.89 84645.41 64911.75 46594.27 50250.95 58753.62 58528.62 3536.83 367.17 -23.09 1747.88
7.783 86246.64 75909.01 78199.59 91939.74 84635.93 64901.96 46584.75 50240.78 58752.16 58527.82 3535.00 365.18 -25.15 1746.01
7.791 86253.21 75915.44 78205.87 91945.51 84640.96 64906.63 46588.30 50243.26 58752.48 58527.77 3534.79 365.16 -24.72 1746.39
7.799 86254.62 75917.19 78209.09 91948.53 84645.23 64911.16 46594.11 50250.43 58746.06 58520.85 3526.97 357.07 -32.45 1738.90
7.808 86246.64 75909.01 78199.59 91939.74 84635.93 64901.96 46584.75 50240.78 58752.16 58527.82 3535.00 365.18 -25.15 1746.01
7.816 86253.21 75915.44 78205.87 91945.51 84640.96 64906.63 46588.30 50243.26 58752.48 58527.77 3534.79 365.16 -24.72 1746.39
7.824 86254.62 75917.19 78209.09 91948.53 84645.23 64911.16 46594.11 50250.43 58746.06 58520.85 3526.97 357.07 -32.45 1738.90
7.833 86249.19 75912.20 78203.99 91943.25 84639.02 64904.73 46587.32 50243.26 58760.68 58536.96 3542.89 371.89 -17.41 1753.05
7.841 86260.12 75922.86 78214.88 91954.16 84650.06 64915.61 46598.25 50254.70 58753.33 58529.74 3535.93 365.25 -22.69 1748.20
7.850 86260.17 75922.75 78214.43 91952.42 84647.55 64911.72 46593.64 50247.71 58760.86 58536.31 3540.83 369.23 -19.78 1751.04
7.858 86264.46 75927.69 78219.82 91958.18 84653.95 64918.09 46600.41 50255.24 58757.68 58534.23 3539.58 368.13 -19.78 1751.95
7.866 86246.35 75909.16 78200.62 91939.12 84634.30 64898.04 46580.77 50236.31 58752.05 58528.69 3532.96 360.96 -26.87 1744.04
7.875 86255.69 75918.80 78211.91 91951.01 84647.20 64911.54 46594.92 50251.44 58748.70 58525.87 3529.92 358.41 -29.46 1741.92
7.883 86262.47 75924.74 78217.67 91955.68 84651.13 64914.76 46597.58 50253.23 58765.60 58543.49 3547.38 374.93 -12.27 1758.93
7.891 86247.94 75910.39 78202.36 91939.74 84633.63 64895.65 46577.08 50229.80 58749.33 58526.23 3528.98 356.00 -31.67 1739.32
7.900 86249.57 75913.16 78206.72 91944.88 84640.80 64904.19 46588.81 50244.73 58728.99 58505.87 3507.41 334.25 -53.69 1717.82
7.908 86266.78 75930.42 78223.91 91961.65 84657.63 64920.19 46604.59 50260.27 58770.56 58549.72 3552.99 380.47 -4.76 1766.93
7.916 86270.45 75934.02 78228.11 91965.83 84660.94 64922.56 46607.21 50262.57 58766.69 58545.32 3547.11 373.83 -12.65 1758.61
7.925 86256.77 75920.16 78213.65 91950.25 84644.04 64904.59 46587.41 50241.13 58769.20 58547.53 3548.76 374.68 -10.86 1760.58
7.933 86251.87 75915.69 78210.65 91947.61 84643.15 64904.37 46589.44 50245.65 58737.19 58515.91 3516.26 341.89 -43.85 1727.57
7.941 86281.02 75944.01 78237.70 91974.25 84668.50 64928.13 46612.55 50267.55 58768.17 58546.53 3546.75 372.27 -13.63 1757.76
7.950 86249.44 75912.92 78208.15 91945.13 84640.74 64901.08 46586.96 50243.30 58763.38 58542.80 3543.24 369.32 -15.71 1755.39
7.958 86258.51 75922.24 78217.09 91951.97 84646.35 64905.02 46589.35 50244.33 58765.80 58545.79 3543.44 367.87 -15.83 1755.71
7.966 86253.03 75917.74 78213.60 91949.04 84644.31 64903.63 46589.53 50245.96 58745.61 58525.96 3523.84 348.17 -35.20 1736.28
7.975 86260.21 75925.05 78220.02 91954.54 84648.58 64906.34 46591.47 50246.05 58752.59 58533.54 3530.97 354.81 -27.92 1744.02
7.983 86284.71 75948.43 78243.35 91976.89 84670.64 64926.88 46610.85 50265.45 58761.06 58542.28 3538.19 362.75 -18.75 1753.67
7.991 86255.81 75920.94 78217.65 91951.81 84646.77 64903.48 46589.57 50245.00 58760.43 58541.36 3536.60 359.66 -23.74 1746.81
8.000 86259.74 75924.27 78221.83 91956.24 84651.96 64908.33 46595.52 50251.91 58761.78 58543.40 3538.10 360.09 -22.87 1747.46
8.008 86255.78 75920.94 78218.28 91952.37 84648.07 64902.67 46589.37 50245.18 58763.07 58545.34 3540.27 363.48 -17.52 1754.52
8.016 86253.41 75918.33 78215.46 91948.77 84643.53 64897.37 46584.19 50239.75 58743.76 58526.37 3520.42 343.30 -37.53 1734.03
8.025 86259.34 75924.25 78221.70 91954.90 84649.12 64902.45 46589.84 50245.76 58757.66 58540.56 3534.37 357.02 -23.98 1748.17
8.033 86258.53 75923.74 78221.36 91954.72 84649.16 64902.11 46589.89 50245.92 58749.06 58532.09 3525.72 348.33 -31.20 1740.44
8.041 86268.28 75932.83 78230.23 91962.86 84656.81 64908.57 46596.12 50251.44 58762.29 58545.34 3537.66 359.66 -20.36 1751.30
8.050 86251.83 75917.25 78215.33 91947.79 84642.61 64894.53 46583.34 50239.59 58751.02 58534.57 3526.57 349.09 -30.58 1741.60
8.058 86276.97 75942.04 78240.07 91972.02 84666.44 64917.98 46606.61 50262.19 58766.45 58550.95 3543.35 365.00 -13.66 1757.83
8.066 86247.60 75912.72 78209.80 91940.95 84634.66 64885.35 46572.85 50227.28 58754.60 58537.90 3528.27 349.56 -29.57 1741.92
8.075 86243.51 75909.43 78207.26 91939.18 84634.01 64885.75 46574.71 50230.90 58721.25 58504.71 3495.16 316.93 -62.14 1709.39
8.083 86279.43 75945.68 78244.32 91976.42 84671.92 64924.15 46614.09 50271.04 58783.55 58570.33 3562.22 383.09 7.26 1778.93
8.091 86280.75 75946.85 78244.11 91975.89 84670.67 64922.34 46611.37 50266.97 58769.98 58554.60 3543.62 363.62 -14.44 1756.67
8.100 86254.20 75921.30 78217.74 91950.32 84645.01 64896.93 46586.67 50242.65 58771.05 58556.52 3545.68 366.01 -11.65 1760.00
8.108 86239.83 75908.45 78204.02 91934.69 84629.43 64877.70 46568.88 50223.39 58752.83 58540.60 3527.46 347.10 -27.38 1745.83
8.116 86265.26 75934.98 78230.32 91961.13 84656.58 64905.29 46598.11 50254.28 58747.56 58534.82 3521.20 340.35 -33.95 1737.92
8.124 86264.70 75934.64 78229.56 91959.66 84653.68 64900.61 46592.35 50246.59 58760.57 58547.96 3534.35 353.87 -20.25 1752.13
8.133 86258.62 75929.21 78225.61 91956.78 84652.05 64900.55 46594.04 50250.68 58760.70 58548.61 3534.75 354.19 -18.84 1753.49
8.141 86267.32 75937.57 78233.39 91963.28 84657.14 64904.37 46596.68 50251.44 58762.83 58550.44 3535.84 354.43 -20.32 1750.88
8.149 86252.41 75922.89 78219.44 91949.22 84643.69 64890.02 46583.16 50238.29 58757.26 58544.94 3530.10 348.73 -24.56 1747.17
8.158 86266.29 75937.66 78233.99 91963.68 84657.39 64903.19 46596.77 50251.97 58748.99 58537.36 3522.23 340.64 -31.94 1739.95
8.166 86242.40 75913.32 78210.01 91939.34 84633.05 64878.24 46572.34 50227.48 58764.97 58552.92 3537.03 354.74 -18.42 1753.27
8.174 86250.98 75922.60 78219.71 91948.80 84642.59 64887.52 46582.02 50237.11 58737.28 58526.21 3510.52 328.88 -42.51 1729.73
8.182 86257.64 75929.50 78226.21 91954.05 84646.77 64891.14 46584.43 50238.16 58751.69 58540.85 3524.31 342.18 -30.00 1742.32
8.191 86255.31 75927.98 78225.41 91953.13 84646.84 64891.34 46585.42 50239.77 58751.67 58539.71 3522.19 339.59 -33.21 1738.50
8.199 86259.65 75932.14 78229.65 91957.60 84651.31 64895.38 46590.29 50245.18 58755.49 58545.50 3529.34 346.65 -23.09 1749.09
8.207 86254.89 75928.25 78226.86 91955.14 84650.06 64893.77 46590.27 50246.68 58757.60 58547.29 3530.19 347.57 -22.58 1750.25
8.216 86251.92 75925.25 78222.79 91949.38 84642.06 64884.21 46578.15 50231.10 58756.77 58545.95 3526.59 342.65 -29.15 1741.80
8.224 86251.20 75925.01 78223.95 91951.25 84645.72 64887.74 46584.63 50240.06 58739.54 58529.29 3511.21 328.15 -41.13 1732.04
8.232 86249.88 75924.52 78223.77 91950.49 84644.65 64885.68 46582.44 50237.31 58762.13 58552.70 3533.56 349.20 -21.17 1749.87
8.241 86263.27 75938.49 78238.15 91964.24 84657.93 64898.60 46595.32 50250.88 58755.85 58546.59 3527.02 342.52 -26.98 1745.11
8.249 86262.62 75938.17 78237.72 91963.77 84657.19 64897.60 46595.01 50250.50 58762.42 58553.50 3533.48 349.45 -19.60 1752.82
8.257 86249.88 75924.52 78223.77 91950.49 84644.65 64885.68 46582.44 50237.31 58762.13 58552.70 3533.56 349.20 -21.17 1749.87
8.266 86263.27 75938.49 78238.15 91964.24 84657.93 64898.60 46595.32 50250.88 58755.85 58546.59 3527.02 342.52 -26.98 1745.11
8.274 86262.62 75938.17 78237.72 91963.77 84657.19 64897.60 46595.01 50250.50 58762.42 58553.50 3533.48 349.45 -19.60 1752.82
8.282 86249.70 75926.31 78225.85 91951.70 84644.51 64883.83 46581.44 50236.28 58760.08 58551.78 3531.17 346.61 -22.11 1750.45
8.291 86261.82 75938.53 78238.03 91963.12 84655.20 64893.06 46591.00 50245.00 58753.55 58545.05 3524.24 339.43 -29.17 1743.03
8.299 86250.89 75927.38 78228.71 91954.03 84647.49 64885.48 46584.70 50240.49 58758.42 58549.93 3528.49 343.55 -24.56 1748.11
8.307 86246.75 75924.27 78225.27 91950.49 84643.62 64881.06 46579.74 50234.85 58747.36 58539.69 3518.66 333.56 -34.58 1738.16
8.316 86250.96 75927.56 78228.78 91952.91 84645.23 64881.26 46580.03 50234.54 58756.99 58549.77 3528.00 342.92 -24.32 1748.62
8.324 86247.20 75925.52 78228.29 91953.60 84647.73 64884.66 46585.89 50242.63 58748.54 58541.48 3518.90 332.59 -34.82 1737.13
8.333 86249.53 75927.27 78229.83 91954.41 84647.80 64883.92 46585.39 50241.45 58758.58 58551.62 3528.98 342.81 -23.94 1748.62
8.341 86251.31 75929.37 78231.20 91954.90 84647.51 64882.38 46582.80 50237.20 58757.60 58551.11 3527.78 342.12 -24.27 1748.51
8.349 86248.54 75927.18 78228.60 91952.31 84644.96 64879.67 46580.30 50235.21 58743.31 58536.72 3512.44 326.27 -40.23 1732.55
8.358 86255.96 75934.31 78235.84 91958.97 84651.20 64885.64 46586.24 50240.46 58762.22 58555.78 3531.35 344.24 -21.95 1750.99
8.366 86249.19 75927.76 78230.59 91953.82 84647.38 64882.11 46584.41 50239.73 58743.36 58537.30 3512.87 325.98 -38.13 1735.34
8.374 86245.59 75925.10 78227.75 91951.03 84643.78 64878.04 46580.07 50234.09 58759.96 58554.64 3530.53 342.72 -21.59 1751.15
8.383 86235.38 75914.68 78217.29 91939.54 84632.31 64866.19 46568.45 50222.63 58747.09 58541.61 3515.71 327.68 -37.44 1735.66
8.391 86266.04 75945.95 78249.26 91971.59 84664.61 64898.25 46601.00 50255.71 58749.35 58543.91 3518.05 329.82 -34.29 1738.41
8.399 86245.84 75925.19 78228.74 91950.34 84642.86 64875.56 46577.86 50231.63 58761.10 58556.38 3530.59 342.85 -20.65 1753.00
8.408 86251.94 75932.45 78237.10 91957.58 84650.35 64881.75 46585.53 50239.41 58753.46 58549.99 3522.34 333.15 -28.74 1744.96
8.416 86250.51 75931.58 78237.10 91957.58 84650.95 64881.77 46586.44 50240.40 58762.38 58558.82 3529.18 339.59 -22.89 1750.10
8.424 86240.90 75921.95 78227.51 91947.66 84640.85 64871.09 46575.72 50230.20 58746.15 58543.26 3514.14 323.83 -37.10 1736.89
8.433 86244.30 75925.28 78231.87 91951.81 84645.56 64875.40 46581.06 50236.04 58746.49 58544.58 3516.24 326.29 -33.68 1740.40
8.441 86249.73 75931.04 78237.65 91957.36 84650.59 64879.76 46585.04 50239.41 58757.75 58555.36 3525.85 335.01 -26.20 1746.99
8.449 86243.85 75924.76 78230.82 91949.73 84641.68 64869.23 46574.04 50227.72 58751.72 58549.52 3520.38 329.64 -29.82 1743.91
8.458 86257.57 75939.52 78247.40 91967.37 84660.85 64889.44 46596.35 50251.71 58760.75 58558.73 3528.11 337.24 -22.96 1750.32
8.466 86227.42 75908.92 78216.71 91935.90 84629.20 64856.83 46562.86 50217.60 58744.88 58543.06 3512.06 321.33 -37.84 1735.90
8.474 86242.31 75923.89 78230.99 91949.78 84642.26 64869.57 46574.75 50228.82 58741.90 58540.65 3509.20 318.22 -41.31 1732.89
8.482 86251.49 75933.44 78241.39 91959.82 84652.74 64879.40 46585.55 50239.81 58752.66 58551.69 3520.58 329.00 -30.40 1743.95
8.491 86245.23 75926.51 78233.72 91951.21 84643.55 64869.08 46573.99 50227.25 58752.03 58550.77 3518.75 326.74 -32.39 1741.94
8.499 86225.79 75908.56 78217.65 91936.55 84630.03 64856.58 46564.27 50219.03 58743.38 58543.85 3512.42 320.14 -37.51 1736.89
8.507 86253.95 75935.65 78243.85 91961.20 84653.45 64878.82 46584.81 50237.98 58741.70 58541.41 3508.87 316.68 -41.37 1732.68
8.516 86238.98 75920.43 78228.83 91945.71 84637.92 64863.09 46569.35 50222.83 58754.11 58553.19 3519.60 327.05 -31.78 1743.06
8.524 86246.93 75929.59 78239.20 91956.93 84650.41 64875.87 46583.92 50239.05 58746.22 58547.33 3515.80 323.70 -31.87 1743.06
8.532 86243.11 75925.32 78233.94 91949.96 84641.88 64865.95 46572.41 50224.91 58758.15 58557.64 3523.89 329.87 -28.23 1745.69
8.541 86223.26 75905.12 78214.25 91930.20 84622.16 64845.63 46552.78 50206.13 58713.07 58512.33 3477.13 284.07 -73.67 1700.81
8.549 86241.48 75925.21 78236.07 91953.04 84646.91 64871.53 46581.04 50235.97 58754.51 58556.85 3524.22 331.32 -23.76 1751.51
8.557 86243.11 75925.32 78233.94 91949.96 84641.88 64865.95 46572.41 50224.91 58758.15 58557.64 3523.89 329.87 -28.23 1745.69
8.566 86223.26 75905.12 78214.25 91930.20 84622.16 64845.63 46552.78 50206.13 58713.07 58512.33 3477.13 284.07 -73.67 1700.81
8.574 86241.48 75925.21 78236.07 91953.04 84646.91 64871.53 46581.04 50235.97 58754.51 58556.85 3524.22 331.32 -23.76 1751.51
8.582 86239.56 75921.86 78232.40 91948.17 84640.11 64863.78 46571.76 50224.71 58742.75 58543.20 3508.75 314.82 -41.71 1732.46
8.591 86251.25 75933.55 78243.22 91957.58 84649.25 64871.56 46579.31 50230.90 58748.99 58550.15 3514.52 320.50 -36.12 1739.01
8.599 86233.92 75916.69 78228.11 91942.98 84635.73 64858.19 46566.80 50220.44 58737.17 58538.68 3504.26 310.22 -45.17 1729.71
8.607 86249.62 75932.90 78244.99 91960.44 84653.25 64876.09 46585.15 50239.28 58754.15 58556.85 3522.03 327.83 -27.25 1748.44
8.616 86238.39 75921.54 78233.36 91948.10 84640.13 64861.61 46571.04 50224.28 58752.79 58554.71 3519.42 324.23 -30.22 1744.49
8.624 86230.53 75913.70 78225.52 91939.56 84631.15 64852.00 46561.50 50214.22 58734.39 58536.56 3500.86 305.62 -48.62 1726.90
8.633 86240.25 75923.89 78237.05 91951.25 84643.78 64865.12 46575.54 50229.53 58742.19 58545.39 3509.27 314.80 -39.05 1736.71
8.641 86248.12 75931.11 78244.45 91957.87 84649.88 64870.37 46580.03 50233.38 58745.95 58548.85 3512.20 316.57 -36.72 1738.72
8.649 86235.60 75918.62 78232.11 91945.22 84636.94 64856.43 46566.33 50218.92 58749.75 58552.72 3515.48 319.27 -35.23 1739.82
8.658 86224.00 75907.75 78221.63 91934.45 84626.72 64845.88 46556.65 50209.82 58732.92 58536.31 3499.12 303.07 -50.36 1724.88
8.666 86229.14 75911.40 78223.39 91934.33 84623.84 64841.58 46550.28 50200.59 58720.85 58523.95 3486.36 290.48 -62.90 1713.10
8.674 86236.61 75920.96 78236.56 91949.85 84643.78 64864.20 46577.24 50233.18 58725.95 58528.89 3490.76 294.37 -58.61 1717.42
8.683 86241.93 75926.01 78241.12 91953.69 84646.64 64866.37 46578.51 50232.15 58767.03 58572.34 3535.31 338.65 -12.90 1762.61
8.691 86222.44 75906.30 78220.60 91932.41 84624.02 64842.37 46553.72 50206.64 58732.87 58537.07 3498.14 300.94 -51.72 1724.03
8.700 86239.53 75923.78 78238.30 91950.11 84642.44 64860.94 46573.08 50226.16 58732.81 58537.61 3499.41 302.04 -49.73 1726.11
8.708 86234.21 75917.83 78233.50 91943.23 84634.50 64850.17 46562.57 50214.45 58740.25 58546.42 3506.36 307.54 -41.80 1734.34
8.716 86214.81 75897.87 78213.45 91922.98 84613.96 64828.80 46542.61 50194.33 58713.85 58519.97 3479.85 281.70 -67.73 1709.26
8.724 86241.81 75926.08 78243.38 91953.36 84646.17 64861.19 46576.61 50229.58 58738.93 58546.13 3505.67 305.88 -43.70 1732.26
8.733 86230.06 75913.50 78229.43 91938.16 84628.76 64841.47 46555.93 50207.20 58733.66 58539.44 3497.94 298.22 -51.63 1724.75
8.741 86225.27 75909.03 78226.55 91935.59 84627.26 64840.29 46555.62 50208.34 58734.06 58541.79 3501.60 302.24 -45.96 1731.19
8.749 86235.31 75918.97 78236.00 91945.11 84635.80 64847.84 46562.95 50214.13 58728.34 58535.26 3493.62 293.72 -54.72 1721.71
8.758 86235.04 75918.10 78234.86 91943.27 84633.63 64845.83 46561.28 50213.19 58725.77 58533.12 3490.38 290.15 -58.41 1718.07
8.766 86244.30 75928.63 78246.53 91955.21 84646.84 64859.29 46576.65 50229.44 58755.32 58563.96 3523.13 322.71 -23.78 1752.85
8.774 86228.58 75912.45 78229.18 91936.79 84627.26 64838.57 46554.53 50205.68 58732.00 58540.47 3498.81 298.46 -49.22 1727.99
8.782 86229.14 75912.87 78230.48 91937.69 84628.64 64840.22 46557.01 50208.28 58721.47 58529.41 3486.74 286.21 -61.76 1714.96
8.791 86239.31 75924.00 78242.44 91949.51 84641.34 64853.07 46570.42 50223.07 58739.56 58549.12 3507.15 306.44 -39.90 1737.85
8.799 86238.39 75923.24 78241.39 91948.35 84639.22 64850.17 46567.04 50218.11 58739.20 58548.29 3505.18 303.54 -42.98 1734.25
8.807 86223.89 75908.80 78226.03 91931.45 84621.18 64831.01 46547.19 50197.10 58727.55 58536.58 3492.95 290.71 -55.77 1721.62
8.816 86228.67 75914.57 78233.21 91940.48 84631.66 64842.84 46561.72 50214.29 58724.56 58534.50 3490.74 288.67 -56.93 1719.88
8.824 86240.63 75926.46 78244.43 91950.07 84640.11 64849.61 46568.34 50219.14 58733.84 58543.53 3498.92 296.56 -49.35 1727.63
8.832 86231.58 75917.83 78235.49 91940.84 84631.19 64840.11 46558.57 50209.55 58727.13 58536.78 3491.88 288.87 -56.80 1720.84
8.840 86214.41 75900.87 78219.04 91924.25 84614.94 64824.02 46543.89 50195.92 58733.32 58544.23 3500.26 297.88 -45.58 1732.44
8.849 86220.16 75906.86 78224.69 91929.89 84620.49 64828.44 46548.54 50199.94 58707.30 58518.25 3473.35 269.96 -74.19 1702.93
8.857 86231.58 75917.83 78235.49 91940.84 84631.19 64840.11 46558.57 50209.55 58727.13 58536.78 3491.88 288.87 -56.80 1720.84
8.865 86214.41 75900.87 78219.04 91924.25 84614.94 64824.02 46543.89 50195.92 58733.32 58544.23 3500.26 297.88 -45.58 1732.44
8.874 86220.16 75906.86 78224.69 91929.89 84620.49 64828.44 46548.54 50199.94 58707.30 58518.25 3473.35 269.96 -74.19 1702.93
8.882 86240.88 75927.38 78245.16 91949.62 84639.46 64847.42 46567.42 50218.25 58744.54 58556.07 3511.77 307.98 -35.38 1742.16
8.891 86220.67 75906.84 78225.83 91929.89 84620.49 64828.24 46549.30 50200.92 58713.18 58524.29 3478.56 274.75 -68.33 1709.53
8.899 86252.83 75939.94 78258.80 91962.79 84653.10 64860.34 46581.53 50232.68 58744.45 58556.70 3511.35 307.52 -34.71 1743.26
8.907 86225.18 75912.22 78230.73 91933.80 84623.93 64830.59 46552.09 50203.11 58735.94 58548.32 3502.05 297.77 -44.82 1732.98
8.916 86233.48 75920.65 78239.49 91942.74 84632.89 64838.90 46560.65 50211.63 58728.09 58540.47 3493.80 288.63 -54.14 1723.57
8.924 86215.95 75902.97 78221.23 91923.76 84613.18 64818.58 46539.28 50188.63 58723.11 58536.25 3489.13 284.27 -57.58 1720.55
8.932 86235.69 75923.27 78242.68 91945.00 84635.48 64842.12 46565.30 50216.73 58718.55 58532.33 3485.73 280.25 -60.93 1717.66
8.941 86212.42 75900.42 78219.91 91922.33 84613.15 64820.15 46543.78 50194.80 58724.85 58538.68 3491.52 286.19 -54.78 1723.79
8.949 86220.31 75907.71 78226.81 91928.08 84618.18 64824.08 46547.15 50197.59 58717.56 58531.55 3483.16 277.61 -63.75 1714.36
8.958 86230.08 75916.45 78234.91 91935.54 84624.26 64829.07 46551.37 50200.72 58719.35 58533.05 3484.28 278.70 -62.54 1715.92
8.966 86228.54 75916.31 78236.51 91938.34 84629.27 64835.35 46560.23 50212.05 58728.96 58543.62 3496.04 290.48 -48.82 1730.52
8.974 86220.09 75907.08 78226.64 91927.61 84617.33 64822.41 46546.01 50196.36 58723.13 58537.41 3488.48 281.90 -58.83 1719.05
8.983 86231.93 75919.29 78239.26 91939.99 84629.56 64834.39 46558.75 50208.84 58723.04 58538.41 3489.96 284.16 -54.14 1724.97
8.991 86229.21 75916.69 78236.22 91936.90 84626.74 64831.35 46556.09 50206.67 58731.51 58546.73 3496.26 288.70 -51.86 1726.52
9.000 86227.08 75914.59 78234.50 91934.83 84624.87 64829.09 46555.02 50205.37 58719.82 58535.80 3486.78 280.11 -58.41 1720.68
9.008 86216.80 75904.09 78225.18 91923.43 84612.66 64814.23 46542.57 50192.83 58715.10 58532.80 3480.50 272.47 -64.17 1715.54
9.016 86222.17 75910.35 78232.11 91930.45 84620.37 64821.56 46550.21 50200.61 58724.58 58543.51 3491.52 282.53 -53.15 1725.82
9.024 86224.40 75912.36 78233.30 91930.51 84619.23 64818.94 46546.70 50195.65 58715.84 58533.63 3480.03 269.90 -66.65 1711.36
9.033 86225.45 75913.21 78235.22 91932.72 84622.79 64822.67 46553.32 50204.50 58717.12 58536.07 3483.12 274.37 -60.86 1719.05
9.041 86233.48 75921.77 78243.09 91940.08 84629.34 64828.15 46557.39 50206.69 58734.53 58553.95 3501.07 290.82 -44.44 1734.67
9.049 86215.66 75903.48 78225.00 91921.28 84609.87 64808.66 46537.85 50187.69 58715.24 58534.52 3481.08 270.39 -64.19 1715.05
9.058 86212.29 75900.53 78222.08 91918.33 84607.05 64804.88 46534.95 50184.09 58703.17 58522.48 3467.67 257.07 -78.23 1700.74
9.066 86222.55 75911.08 78233.18 91928.77 84617.89 64815.59 46546.68 50196.39 58713.36 58533.47 3479.41 269.05 -64.51 1715.27
9.074 86222.39 75910.41 78232.51 91927.99 84616.71 64814.83 46545.79 50195.40 58724.02 58544.38 3489.76 278.91 -55.03 1724.30
9.083 86213.29 75901.58 78222.81 91917.32 84604.66 64801.24 46530.14 50177.25 58701.11 58521.27 3465.33 254.94 -79.37 1700.12
9.091 86240.45 75929.52 78253.08 91948.82 84638.72 64837.69 46570.40 50221.46 58723.75 58544.96 3489.69 278.37 -54.49 1725.02
9.099 86219.51 75908.83 78232.40 91927.81 84616.93 64815.59 46548.18 50198.62 58735.94 58557.19 3501.36 289.41 -42.83 1736.40
9.108 86225.43 75914.46 78237.27 91931.70 84620.04 64817.56 46548.89 50197.46 58717.16 58538.28 3481.69 269.09 -62.90 1716.35
9.116 86215.31 75903.86 78226.88 91921.17 84610.18 64807.97 46540.02 50189.08 58715.08 58536.45 3479.07 267.01 -65.31 1714.54
9.124 86218.95 75908.09 78230.44 91923.74 84611.70 64809.44 46540.60 50187.98 58713.03 58535.28 3477.37 265.09 -67.44 1711.85
9.133 86221.88 75911.11 78235.26 91928.95 84618.85 64817.31 46550.32 50200.19 58712.42 58535.04 3477.75 265.67 -64.35 1715.99
9.141 86210.01 75898.92 78222.52 91915.38 84604.57 64802.20 46535.04 50183.78 58714.95 58537.16 3479.00 265.70 -65.92 1713.42
9.149 86219.40 75908.45 78231.15 91923.69 84611.72 64809.26 46541.45 50188.88 58713.41 58536.07 3477.04 262.92 -67.95 1711.38
9.158 86221.88 75911.11 78235.26 91928.95 84618.85 64817.31 46550.32 50200.19 58712.42 58535.04 3477.75 265.67 -64.35 1715.99
9.166 86210.01 75898.92 78222.52 91915.38 84604.57 64802.20 46535.04 50183.78 58714.95 58537.16 3479.00 265.70 -65.92 1713.42
9.174 86219.40 75908.45 78231.15 91923.69 84611.72 64809.26 46541.45 50188.88 58713.41 58536.07 3477.04 262.92 -67.95 1711.38
9.183 86207.62 75896.89 78221.07 91914.20 84602.83 64801.02 46534.70 50183.29 58707.91 58530.75 3471.47 257.67 -73.09 1706.58
9.191 86217.34 75907.11 78230.66 91923.76 84613.38 64812.30 46546.95 50196.56 58714.01 58538.55 3479.52 266.75 -62.07 1718.45
9.199 86226.12 75915.42 78238.39 91930.27 84618.56 64816.66 46549.47 50197.06 58716.47 58540.00 3479.74 265.90 -63.77 1715.99
9.208 86229.25 75918.84 78242.10 91933.84 84622.90 64821.00 46554.53 50202.80 58727.87 58551.51 3490.83 275.84 -54.43 1724.91
9.216 86217.52 75907.57 78231.40 91923.74 84612.42 64810.74 46545.21 50193.64 58722.53 58547.22 3486.45 271.69 -57.27 1722.56
9.224 86203.35 75892.91 78216.35 91907.53 84596.19 64793.59 46527.66 50175.75 58705.43 58530.14 3468.12 253.33 -75.44 1704.03
9.233 86220.65 75910.57 78235.11 91926.91 84616.28 64814.18 46549.05 50197.91 58708.33 58533.32 3471.85 256.67 -71.35 1708.77
9.241 86214.37 75903.93 78228.49 91919.43 84608.42 64805.75 46540.69 50188.34 58718.10 58543.38 3481.17 265.85 -62.23 1718.13
9.249 86221.00 75910.06 78233.16 91923.34 84610.76 64806.87 46540.49 50186.84 58708.85 58533.83 3470.49 254.05 -74.21 1705.46
9.258 86216.98 75907.44 78233.34 91924.45 84614.94 64812.35 46548.92 50198.58 58714.08 58539.84 3476.52 260.58 -66.54 1713.35
9.266 86203.12 75892.96 78217.96 91907.80 84597.06 64791.99 46527.82 50174.61 58717.45 58544.49 3481.42 265.52 -60.93 1719.50
9.274 86226.30 75917.34 78242.77 91933.62 84623.41 64819.19 46557.01 50205.77 58711.28 58537.99 3473.84 257.27 -68.62 1711.67
9.283 86217.12 75906.97 78232.27 91921.93 84610.20 64805.46 46542.28 50189.99 58720.83 58547.67 3483.27 266.05 -59.75 1720.41
9.291 86222.66 75912.81 78237.30 91926.47 84614.47 64808.32 46544.58 50191.78 58717.54 58544.52 3479.50 262.86 -62.56 1717.80
9.299 86211.10 75901.83 78227.40 91917.01 84606.29 64801.17 46538.19 50186.60 58712.87 58540.65 3475.20 257.51 -67.32 1712.59
9.308 86229.57 75920.76 78247.06 91935.41 84624.15 64815.88 46554.75 50202.55 58717.09 58546.39 3479.25 261.40 -61.78 1718.96
9.316 86205.25 75896.31 78222.75 91910.71 84599.18 64790.78 46530.16 50177.39 58720.29 58549.46 3481.51 262.77 -60.75 1719.74
9.324 86204.20 75895.97 78222.19 91909.86 84598.00 64789.57 46528.93 50175.82 58692.55 58521.61 3452.63 233.84 -90.28 1690.28
9.332 86218.10 75909.30 78236.27 91923.90 84612.55 64803.94 46544.29 50192.47 58709.38 58539.73 3471.96 254.01 -67.28 1714.78
9.341 86222.95 75914.50 78241.21 91928.32 84616.33 64807.32 46547.49 50194.33 58718.55 58548.45 3478.51 258.88 -65.00 1715.43
9.349 86214.57 75906.05 78232.87 91919.58 84607.34 64797.68 46537.83 50184.63 58719.44 58550.51 3481.44 262.07 -59.12 1721.55
9.357 86203.53 75894.99 78222.61 91909.41 84598.36 64788.70 46529.98 50177.79 58702.99 58533.83 3463.51 243.37 -78.23 1702.67
9.366 86215.15 75907.22 78234.48 91921.77 84610.83 64801.06 46542.68 50190.04 58713.18 58545.03 3475.12 255.44 -65.00 1716.46
9.374 86213.27 75905.29 78231.73 91917.24 84604.93 64794.51 46535.08 50181.37 58706.14 58537.25 3466.29 245.94 -75.30 1706.06
9.382 86221.79 75914.41 78242.39 91928.50 84617.31 64807.12 46549.25 50196.05 58715.73 58547.87 3476.12 255.46 -65.98 1715.85
9.391 86202.39 75894.66 78222.92 91909.37 84598.27 64787.54 46530.16 50177.14 58712.89 58544.61 3472.03 251.03 -69.80 1710.87
9.399 86208.49 75900.53 78228.09 91913.88 84602.18 64790.51 46532.80 50179.53 58703.73 58537.03 3465.08 244.08 -76.00 1704.83
9.407 86218.52 75911.37 78239.58 91925.28 84614.14 64802.51 46545.94 50193.26 58706.14 58538.95 3466.91 244.89 -74.07 1707.16
9.416 86210.34 75902.30 78230.82 91915.98 84604.28 64792.16 46535.57 50182.01 58715.40 58548.29 3474.85 252.35 -67.37 1713.66
9.424 86210.86 75902.97 78231.40 91916.18 84604.12 64791.63 46535.17 50181.16 58709.27 58542.08 3467.65 245.13 -75.26 1706.13
9.432 86216.20 75909.05 78238.06 91922.60 84611.17 64798.53 46542.41 50189.17 58712.02 58546.28 3472.66 250.27 -68.08 1713.28
9.440 86202.56 75894.86 78223.33 91907.29 84594.80 64780.94 46524.53 50169.63 58706.34 58540.02 3465.35 243.01 -76.00 1705.80
9.449 86214.95 75907.53 78235.67 91919.11 84607.43 64793.04 46537.52 50183.73 58690.38 58524.58 3449.48 227.56 -89.72 1692.43
9.457 86216.20 75909.05 78238.06 91922.60 84611.17 64798.53 46542.41 50189.17 58712.02 58546.28 3472.66 250.27 -68.08 1713.28
9.465 86202.56 75894.86 78223.33 91907.29 84594.80 64780.94 46524.53 50169.63 58706.34 58540.02 3465.35 243.01 -76.00 1705.80
9.474 86214.95 75907.53 78235.67 91919.11 84607.43 64793.04 46537.52 50183.73 58690.38 58524.58 3449.48 227.56 -89.72 1692.43
9.482 86217.36 75910.79 78240.43 91924.68 84614.05 64800.59 46546.05 50192.88 58726.75 58561.66 3486.65 262.81 -55.63 1725.80
9.491 86218.37 75911.89 78241.77 91925.21 84614.29 64799.47 46545.59 50191.76 58714.93 58550.42 3474.56 251.21 -66.79 1714.92
9.499 86203.79 75896.91 78225.36 91908.41 84596.28 64780.68 46526.30 50172.11 58705.81 58541.07 3464.88 241.02 -76.58 1705.24
9.507 86210.34 75903.57 78233.65 91916.79 84605.47 64790.04 46536.69 50183.89 58705.11 58540.69 3464.54 240.15 -76.42 1705.33
9.516 86218.01 75911.64 78241.48 91924.32 84611.90 64795.07 46541.74 50187.56 58709.45 58545.43 3467.87 243.12 -73.63 1708.46
9.524 86200.87 75893.90 78224.51 91906.86 84595.36 64777.99 46525.45 50171.62 58709.78 58546.51 3469.80 244.93 -70.92 1711.23
9.532 86208.29 75900.98 78230.61 91912.79 84600.68 64782.66 46530.21 50175.33 58692.08 58528.58 3450.01 225.42 -91.35 1690.82
9.541 86221.94 75915.44 78245.37 91927.70 84615.66 64797.80 46545.72 50190.91 58713.32 58550.26 3472.28 246.92 -68.73 1713.55
9.549 86196.89 75890.03 78221.00 91902.53 84590.89 64773.03 46522.16 50168.56 58709.78 58546.82 3469.21 244.10 -70.86 1712.08
9.557 86219.82 75913.59 78244.29 91925.26 84613.51 64795.18 46543.64 50189.46 58694.99 58531.93 3453.28 227.72 -86.72 1695.18
9.566 86211.08 75904.24 78235.06 91915.34 84602.67 64783.04 46530.95 50175.08 58716.31 58553.66 3473.75 247.43 -67.82 1714.20
9.574 86210.23 75903.84 78235.44 91916.41 84604.97 64786.73 46536.80 50184.02 58695.48 58532.85 3452.72 227.00 -87.06 1696.25
9.583 86218.19 75912.05 78243.26 91924.43 84613.49 64794.40 46544.87 50191.36 58728.96 58567.83 3487.79 261.05 -53.60 1727.97
9.591 86213.61 75907.04 78238.21 91917.93 84607.72 64787.20 46537.27 50182.55 58715.10 58553.48 3472.81 245.69 -67.82 1714.16
9.599 86213.52 75907.44 78238.66 91918.80 84610.49 64788.59 46539.39 50184.65 58698.54 58537.05 3455.24 227.79 -86.39 1695.36
9.608 86208.22 75902.30 78235.37 91913.82 84610.63 64783.87 46537.87 50183.09 58707.66 58548.74 3465.15 235.81 -74.97 1707.20
9.616 86204.35 75898.05 78230.37 91908.16 84604.95 64777.10 46531.24 50176.07 58699.53 58540.16 3455.00 226.56 -84.29 1698.42
9.624 86213.70 75907.26 78239.76 91916.92 84614.16 64785.23 46539.80 50184.09 58713.05 58554.37 3468.90 239.95 -70.92 1710.89
9.633 86201.42 75894.68 78226.46 91903.18 84599.88 64770.48 46524.62 50168.42 58691.48 58532.16 3445.83 216.54 -93.63 1688.38
9.641 86198.65 75893.14 78226.95 91905.01 84603.81 64775.04 46532.09 50178.21 58702.54 58544.07 3457.86 228.35 -81.29 1701.21
9.649 86207.84 75902.17 78235.58 91912.54 84610.38 64781.19 46537.49 50182.48 58713.76 58557.01 3471.36 241.26 -67.26 1714.83
9.658 86199.23 75893.69 78226.99 91903.69 84602.20 64772.38 46529.67 50174.82 58711.95 58554.95 3467.25 236.93 -72.20 1709.53
9.666 86207.01 75901.65 78234.59 91910.84 84609.04 64778.60 46535.48 50179.69 58698.03 58541.43 3454.17 223.58 -84.65 1697.75
9.674 86205.27 75899.66 78232.89 91909.35 84607.12 64776.03 46533.45 50177.63 58707.73 58550.91 3462.17 230.87 -78.07 1704.39
9.683 86193.27 75887.99 78221.56 91896.76 84594.54 64762.39 46520.22 50164.02 58700.22 58544.18 3455.53 224.95 -83.24 1699.49
9.691 86211.68 75905.97 78240.07 91915.27 84613.38 64780.16 46538.50 50182.50 58695.01 58538.77 3449.32 218.04 -89.27 1693.39
9.699 86202.90 75897.23 78231.69 91907.09 84604.77 64770.93 46530.43 50174.55 58706.77 58551.33 3461.59 230.00 -77.87 1704.70
9.708 86211.84 75906.32 78240.18 91914.96 84612.46 64777.23 46536.58 50180.11 58707.64 58551.83 3461.50 229.80 -77.83 1704.59
9.716 86198.83 75893.09 78227.95 91902.82 84601.08 64765.16 46526.23 50171.33 58700.67 58544.81 3453.93 221.01 -86.68 1695.29
9.724 86194.90 75889.13 78223.86 91897.52 84595.12 64758.12 46518.45 50162.23 58695.75 58541.68 3451.98 220.37 -85.90 1697.35
9.733 86210.75 75905.63 78241.54 91916.07 84614.76 64778.22 46540.78 50186.93 58700.96 58545.97 3454.40 221.42 -85.00 1697.41
9.741 86198.41 75892.96 78228.71 91902.48 84600.57 64762.10 46524.15 50168.47 58702.52 58548.45 3456.25 222.85 -83.08 1698.84
9.749 86207.21 75901.36 78236.78 91909.75 84607.10 64767.73 46529.78 50173.54 58698.39 58544.20 3451.38 218.00 -88.38 1694.11
9.758 86210.75 75905.63 78241.54 91916.07 84614.76 64778.22 46540.78 50186.93 58700.96 58545.97 3454.40 221.42 -85.00 1697.41
9.766 86198.41 75892.96 78228.71 91902.48 84600.57 64762.10 46524.15 50168.47 58702.52 58548.45 3456.25 222.85 -83.08 1698.84
9.774 86207.21 75901.36 78236.78 91909.75 84607.10 64767.73 46529.78 50173.54 58698.39 58544.20 3451.38 218.00 -88.38 1694.11
9.783 86198.18 75892.87 78229.88 91903.78 84602.43 64763.15 46527.21 50173.25 58703.59 58550.42 3458.78 225.89 -79.15 1704.83
9.791 86222.21 75917.14 78253.90 91926.96 84625.40 64784.97 46549.54 50194.35 58706.95 58553.46 3460.30 226.22 -80.09 1702.24
9.799 86202.41 75897.14 78233.77 91906.44 84604.06 64762.86 46527.35 50171.44 58717.00 58563.58 3469.93 235.63 -70.07 1712.50
9.808 86192.33 75886.54 78223.15 91895.06 84592.48 64750.03 46514.38 50157.87 58687.84 58534.26 3440.11 205.86 -100.02 1682.62
9.816 86193.18 75888.04 78226.64 91899.35 84598.00 64756.29 46522.76 50167.80 58692.33 58539.31 3445.32 210.96 -94.01 1689.46
9.825 86195.73 75890.61 78229.14 91900.34 84598.60 64755.75 46521.83 50166.50 58694.72 58542.66 3448.56 213.26 -90.79 1692.16
9.833 86197.47 75892.51 78230.57 91902.28 84600.26 64757.05 46523.64 50167.98 58691.57 58539.55 3444.90 209.97 -93.30 1689.84
9.841 86212.76 75907.89 78246.77 91918.49 84616.80 64773.39 46541.63 50186.77 58708.20 58556.18 3459.98 223.74 -81.11 1701.37
9.850 86200.84 75895.73 78234.57 91905.48 84604.08 64760.54 46528.35 50173.23 58709.78 58558.42 3462.06 226.20 -77.49 1705.68
9.858 86191.66 75887.35 78226.37 91897.39 84596.39 64752.69 46521.18 50166.28 58690.72 58539.98 3444.31 208.36 -93.36 1690.22
9.866 86202.03 75897.49 78235.75 91906.64 84604.91 64761.27 46529.56 50173.79 58700.35 58549.34 3451.98 215.14 -88.29 1694.33
9.875 86213.03 75908.54 78247.58 91918.08 84616.84 64773.23 46542.05 50186.82 58703.91 58553.35 3455.60 219.36 -83.26 1700.10
9.883 86202.81 75897.99 78236.81 91906.71 84605.13 64761.34 46529.40 50173.30 58719.08 58568.57 3469.91 232.70 -70.07 1712.66
9.891 86192.75 75887.66 78227.46 91897.07 84596.03 64752.38 46521.47 50166.28 58687.48 58537.34 3438.28 200.90 -101.52 1681.97
9.900 86200.04 75895.84 78235.13 91904.49 84603.88 64759.71 46529.36 50173.85 58696.46 58547.02 3448.58 211.74 -88.78 1695.00
9.908 86201.56 75897.40 78238.26 91906.08 84605.04 64758.26 46530.48 50174.64 58695.23 58546.66 3444.72 206.53 -93.63 1690.28
9.916 86201.29 75897.85 78239.89 91907.98 84607.75 64761.18 46534.37 50179.09 58714.08 58566.24 3463.40 224.55 -75.71 1707.41
9.925 86209.11 75905.92 78246.98 91914.55 84613.74 64766.24 46539.44 50183.78 58700.96 58552.29 3448.72 209.08 -90.50 1692.54
9.933 86204.11 75900.76 78242.28 91909.93 84609.02 64760.63 46534.41 50178.62 58712.29 58565.62 3462.71 223.63 -74.25 1709.35
9.941 86187.86 75884.08 78226.30 91893.25 84592.10 64743.50 46517.91 50161.83 58702.27 58554.60 3450.08 210.29 -88.54 1694.49
9.950 86194.05 75890.92 78232.94 91899.49 84598.09 64749.20 46524.02 50167.31 58688.84 58542.10 3437.99 197.88 -99.98 1683.60
9.958 86203.21 75899.93 78242.10 91908.70 84607.57 64758.39 46534.32 50178.33 58701.83 58555.47 3450.53 210.35 -87.60 1696.12
9.966 86185.09 75882.43 78225.61 91892.22 84592.41 64743.46 46521.51 50166.32 58699.39 58553.75 3449.08 208.79 -88.65 1694.80
9.975 86200.91 75897.47 78239.73 91905.52 84603.63 64753.05 46530.32 50173.05 58698.14 58552.45 3446.53 205.68 -91.66 1691.74
9.983 86195.48 75892.31 78234.66 91900.45 84598.38 64747.77 46525.87 50168.92 58697.76 58551.80 3445.63 204.45 -92.63 1691.24
9.991 86202.50 75900.04 78243.26 91908.88 84608.26 64756.74 46537.00 50180.05 58705.63 58560.90 3454.69 213.06 -83.73 1700.14
10.000 86200.87 75897.52 78240.61 91905.68 84604.08 64751.48 46530.88 50174.01 58708.42 58563.49 3457.43 216.30 -78.37 1705.86
10.008 86198.85 75896.42 78240.31 91905.81 84604.93 64752.44 46533.47 50177.21 58691.77 58546.77 3439.46 197.46 -99.04 1685.17
10.016 86206.74 75904.38 78248.58 91913.32 84611.63 64758.08 46540.15 50182.35 58715.10 58569.71 3461.08 218.20 -79.13 1703.65
10.025 86204.60 75901.85 78246.26 91910.44 84609.15 64754.77 46538.72 50181.14 58712.36 58568.43 3460.65 218.49 -76.67 1707.76
10.033 86192.93 75890.41 78234.77 91898.46 84596.50 64741.16 46526.88 50167.89 58698.99 58554.95 3446.19 203.71 -91.98 1691.94
10.041 86184.01 75881.40 78226.46 91890.19 84588.63 64732.62 46523.01 50163.75 58695.57 58551.78 3442.79 200.23 -94.77 1689.55
10.050 86194.03 75891.59 78236.65 91899.51 84597.84 64741.16 46533.61 50173.88 58691.03 58547.31 3437.65 194.37 -100.63 1683.62
10.058 86192.93 75890.41 78234.77 91898.46 84596.50 64741.16 46526.88 50167.89 58698.99 58554.95 3446.19 203.71 -91.98 1691.94
10.066 86184.01 75881.40 78226.46 91890.19 84588.63 64732.62 46523.01 50163.75 58695.57 58551.78 3442.79 200.23 -94.77 1689.55
10.075 86194.03 75891.59 78236.65 91899.51 84597.84 64741.16 46533.61 50173.88 58691.03 58547.31 3437.65 194.37 -100.63 1683.62
10.083 86195.37 75892.69 78236.81 91899.13 84596.06 64738.18 46530.23 50168.54 58705.99 58562.22 3452.09 208.30 -86.37 1697.35
10.091 86188.59 75886.03 78231.71 91894.06 84592.41 64735.23 46529.02 50168.74 58692.40 58548.72 3438.44 194.80 -99.47 1685.41
10.099 86214.95 75913.50 78260.50 91923.09 84622.07 64764.72 46560.18 50200.68 58712.27 58569.82 3459.71 215.38 -78.39 1705.08
10.108 86183.34 75881.38 78229.52 91890.57 84588.75 64730.92 46525.78 50165.29 58713.34 58570.62 3459.51 215.20 -78.90 1704.92
10.116 86197.24 75895.33 78245.25 91905.55 84603.88 64745.65 46540.69 50180.69 58695.19 58552.74 3441.86 197.10 -96.00 1688.34
10.124 86185.96 75883.46 78233.25 91892.45 84589.93 64730.25 46525.51 50163.30 58709.05 58566.96 3455.18 210.37 -83.01 1701.91
10.133 86184.86 75883.08 78234.57 91893.88 84592.50 64733.65 46530.92 50170.06 58688.62 58546.26 3433.61 187.84 -105.08 1679.00
10.141 86195.41 75893.31 78244.43 91902.75 84600.57 64740.53 46537.14 50175.40 58697.60 58555.40 3441.77 196.05 -97.23 1687.38
10.149 86188.37 75886.07 78237.65 91895.44 84593.64 64733.18 46529.96 50168.13 58712.04 58570.22 3456.99 211.20 -80.49 1703.38
10.158 86186.20 75885.33 78238.30 91896.81 84595.83 64736.53 46535.71 50175.49 58686.87 58545.37 3431.48 185.12 -107.02 1677.25
10.166 86197.74 75896.58 78249.19 91907.15 84605.49 64744.87 46543.26 50181.63 58713.85 58572.50 3458.60 211.76 -79.24 1704.77
10.174 86185.89 75884.19 78236.43 91893.21 84590.53 64728.48 46526.52 50163.22 58700.35 58558.46 3442.86 195.69 -96.45 1687.40
10.183 86199.52 75898.79 78252.27 91910.10 84609.13 64748.11 46548.92 50188.25 58703.01 58563.38 3448.27 200.94 -88.98 1695.42
10.191 86189.71 75888.37 78241.68 91898.59 84597.15 64734.83 46535.30 50173.16 58708.67 58568.92 3452.88 205.19 -85.25 1698.80
10.199 86194.25 75893.09 78246.68 91903.02 84601.15 64738.01 46538.59 50176.29 58703.68 58563.67 3447.06 199.04 -91.11 1692.92
10.208 86180.64 75880.26 78236.43 91891.35 84589.77 64724.33 46527.64 50164.82 58704.91 58567.43 3447.24 198.39 -89.74 1694.08
10.216 86190.92 75891.28 78246.91 91900.87 84599.54 64733.02 46537.05 50173.99 58692.98 58555.04 3434.86 185.27 -103.00 1681.16
10.224 86199.75 75899.89 78255.71 91909.81 84607.34 64740.29 46544.36 50180.67 58710.03 58573.55 3452.41 202.98 -84.42 1699.87
10.233 86178.09 75877.51 78233.88 91887.40 84585.35 64717.89 46521.87 50157.87 58699.91 58562.91 3441.25 190.75 -96.60 1687.56
10.241 86191.30 75891.70 78248.07 91901.81 84600.35 64733.58 46539.17 50176.34 58687.25 58551.29 3429.94 180.54 -105.84 1678.75
10.249 86192.42 75892.51 78249.17 91902.66 84600.37 64732.60 46538.12 50173.83 58715.89 58580.21 3458.33 208.59 -77.69 1706.96
10.258 86179.99 75880.39 78236.83 91889.63 84586.82 64719.10 46525.18 50161.67 58696.64 58560.59 3437.23 187.02 -99.47 1684.99
10.266 86183.05 75883.97 78240.56 91893.30 84590.58 64722.69 46528.98 50164.98 58684.46 58548.49 3424.71 173.85 -112.14 1671.69
10.274 86185.60 75886.32 78243.18 91894.68 84592.14 64723.72 46529.72 50165.27 58701.78 58566.96 3442.12 190.91 -94.95 1689.52
10.283 86190.79 75892.46 78250.40 91902.28 84600.62 64732.69 46540.33 50177.25 58696.08 58562.11 3437.97 187.71 -96.02 1689.37
10.291 86194.65 75895.91 78253.14 91904.23 84601.67 64732.08 46538.92 50174.59 58712.80 58578.40 3452.70 200.29 -85.00 1699.02
10.299 86191.28 75892.60 78250.91 91902.24 84599.88 64730.63 46539.15 50175.53 58702.68 58568.23 3442.44 190.68 -93.59 1691.09
10.308 86191.10 75892.91 78251.13 91902.33 84599.77 64729.69 46538.70 50174.70 58711.08 58577.89 3452.00 199.53 -83.71 1700.92
10.316 86195.23 75896.85 78254.91 91904.83 84602.07 64730.09 46539.01 50174.70 58694.12 58560.48 3433.72 181.52 -102.59 1681.81
10.324 86183.28 75885.18 78243.94 91893.81 84590.67 64718.92 46528.40 50163.86 58702.81 58569.57 3442.57 190.17 -93.83 1690.98
10.333 86187.32 75889.18 78247.78 91897.50 84595.00 64722.99 46533.00 50168.65 58704.02 58571.67 3444.34 192.29 -91.06 1693.93
10.341 86168.97 75870.18 78229.03 91877.72 84574.13 64700.95 46510.96 50145.60 58683.88 58551.22 3423.21 170.07 -112.63 1672.20
10.349 86185.69 75887.97 78248.38 91898.01 84596.41 64724.08 46536.51 50173.59 58679.14 58547.80 3419.97 166.92 -114.55 1670.97
10.358 86187.32 75889.18 78247.78 91897.50 84595.00 64722.99 46533.00 50168.65 58704.02 58571.67 3444.34 192.29 -91.06 1693.93
10.366 86168.97 75870.18 78229.03 91877.72 84574.13 64700.95 46510.96 50145.60 58683.88 58551.22 3423.21 170.07 -112.63 1672.20
10.374 86185.69 75887.97 78248.38 91898.01 84596.41 64724.08 46536.51 50173.59 58679.14 58547.80 3419.97 166.92 -114.55 1670.97
10.383 86190.85 75892.42 78252.14 91900.61 84597.55 64723.90 46535.37 50170.57 58709.45 58578.16 3449.88 196.67 -85.38 1699.81
10.391 86193.76 75895.71 78255.27 91903.42 84599.54 64725.73 46537.40 50171.95 58701.05 58569.28 3439.98 186.08 -96.16 1689.23
10.399 86186.18 75887.37 78246.84 91894.19 84589.51 64714.49 46525.60 50159.46 58694.61 58563.27 3434.14 180.22 -101.59 1683.87
10.408 86182.58 75884.75 78246.42 91894.97 84593.24 64719.68 46534.12 50171.04 58697.22 58567.14 3438.01 184.00 -96.83 1688.00
10.416 86186.56 75888.64 78249.21 91896.81 84593.42 64718.81 46532.00 50167.13 58699.17 58568.41 3437.79 181.97 -99.76 1684.56
10.424 86186.45 75888.40 78248.99 91895.93 84592.32 64717.20 46530.39 50165.88 58694.90 58564.88 3434.50 178.93 -101.92 1683.40
10.433 86190.96 75893.22 78254.89 91902.01 84598.25 64723.59 46537.65 50173.09 58700.31 58570.67 3440.38 185.27 -95.22 1690.51
10.441 86185.02 75886.72 78249.43 91895.73 84591.99 64716.84 46530.10 50165.85 58706.41 58577.19 3445.92 190.21 -90.32 1694.98
10.449 86173.40 75875.37 78237.83 91883.73 84579.31 64703.54 46517.00 50152.55 58676.35 58546.89 3415.01 159.37 -120.57 1665.12
10.458 86191.08 75892.89 78255.85 91901.63 84597.75 64721.26 46535.24 50171.17 58701.38 58572.28 3440.45 184.04 -95.31 1689.93
10.466 86188.68 75890.54 78253.95 91899.51 84595.14 64717.96 46532.71 50168.74 58699.37 58570.62 3438.15 181.61 -97.68 1687.87
10.474 86177.04 75878.67 78241.39 91886.50 84580.54 64702.42 46516.46 50150.85 58686.65 58558.08 3425.29 169.09 -109.86 1675.78
10.483 86180.68 75883.12 78247.29 91892.92 84588.37 64710.76 46526.72 50162.81 58686.18 58557.28 3423.21 166.10 -113.84 1671.80
10.491 86179.41 75881.51 78245.86 91889.94 84584.99 64706.60 46522.38 50158.50 58695.99 58569.24 3437.41 181.09 -95.82 1690.66
10.499 86194.99 75897.99 78262.76 91908.00 84603.97 64725.82 46543.44 50179.89 58693.42 58566.40 3432.96 176.09 -101.72 1683.96
10.508 86190.72 75893.20 78259.00 91901.50 84595.76 64713.49 46531.86 50167.75 58685.38 58559.92 3424.64 166.27 -109.30 1676.98
10.516 86189.04 75891.91 78258.33 91900.43 84594.58 64711.56 46530.50 50167.13 58705.14 58579.76 3443.71 184.89 -90.79 1695.34
10.524 86174.29 75877.24 78243.49 91884.94 84578.08 64694.11 46513.20 50149.04 58685.87 58559.98 3423.06 163.77 -112.05 1673.94
10.533 86194.65 75898.43 78265.93 91907.76 84602.14 64718.16 46539.10 50176.27 58696.80 58572.59 3436.56 177.74 -96.29 1690.44
10.541 86182.27 75884.87 78251.87 91892.36 84585.59 64699.49 46519.50 50155.17 58695.52 58570.96 3433.00 173.05 -102.39 1683.31
10.549 86194.41 75897.09 78265.08 91905.39 84598.92 64712.59 46534.03 50170.73 58681.67 58557.82 3420.31 160.80 -113.21 1673.52
10.557 86182.25 75884.98 78253.03 91893.72 84586.65 64700.41 46522.12 50158.30 58702.10 58578.85 3440.51 180.18 -94.70 1691.27
10.566 86184.19 75887.06 78255.04 91895.46 84588.21 64701.19 46523.10 50159.10 58686.94 58563.94 3425.52 165.67 -107.65 1679.20
10.574 86184.82 75888.06 78255.98 91896.25 84588.70 64701.15 46523.26 50159.06 58684.86 58560.92 3420.42 159.12 -115.98 1669.72
10.582 86193.31 75896.35 78265.53 91905.63 84598.63 64712.44 46535.33 50172.98 58706.19 58585.40 3448.65 188.92 -82.10 1705.21
10.591 86179.79 75882.97 78251.69 91891.58 84584.34 64697.39 46520.17 50156.96 58682.31 58560.86 3421.90 161.69 -110.33 1676.67
10.599 86184.75 75888.26 78257.44 91897.16 84590.36 64703.83 46527.39 50164.13 58698.70 58576.70 3436.51 174.25 -98.88 1686.60
10.607 86180.55 75884.19 78253.50 91892.72 84585.53 64698.35 46521.76 50158.28 58687.84 58566.40 3426.05 164.37 -107.96 1678.57
10.615 86179.68 75883.35 78252.41 91891.55 84583.90 64697.30 46521.04 50157.20 58690.14 58569.06 3428.80 167.17 -104.65 1682.39
10.624 86174.27 75877.76 78246.42 91884.83 84576.92 64690.44 46513.69 50149.92 58681.40 58560.70 3419.66 158.05 -113.57 1673.16
10.632 86185.60 75889.20 78258.62 91896.72 84589.17 64702.53 46526.27 50162.43 58688.91 58568.66 3427.26 164.98 -105.92 1680.40
10.640 86191.28 75894.74 78263.72 91901.07 84593.22 64705.19 46529.07 50164.82 58688.84 58569.26 3427.46 164.58 -105.90 1680.69
10.649 86195.64 75899.51 78268.81 91906.04 84597.73 64709.62 46533.27 50168.22 58703.15 58583.81 3441.25 178.39 -92.45 1694.42
10.657 86185.60 75889.20 78258.62 91896.72 84589.17 64702.53 46526.27 50162.43 58688.91 58568.66 3427.26 164.98 -105.92 1680.40
10.665 86191.28 75894.74 78263.72 91901.07 84593.22 64705.19 46529.07 50164.82 58688.84 58569.26 3427.46 164.58 -105.90 1680.69
10.674 86195.64 75899.51 78268.81 91906.04 84597.73 64709.62 46533.27 50168.22 58703.15 58583.81 3441.25 178.39 -92.45 1694.42
10.682 86172.10 75875.63 78244.90 91881.79 84573.68 64685.43 46509.38 50144.84 58675.50 58556.05 3412.98 150.00 -120.30 1666.41
10.691 86178.63 75882.36 78252.63 91889.90 84582.85 64695.14 46520.33 50157.11 58690.81 58572.23 3429.61 166.32 -103.13 1684.36
10.699 86188.68 75892.51 78262.53 91898.91 84590.89 64702.09 46526.45 50161.52 58682.90 58564.05 3420.64 157.00 -112.68 1674.68
10.707 86174.78 75878.23 78248.47 91884.60 84577.06 64688.18 46513.71 50148.89 58691.05 58572.68 3429.23 165.34 -103.67 1683.56
10.716 86174.00 75878.20 78249.10 91885.27 84577.06 64687.67 46513.42 50148.44 58670.58 58552.29 3407.70 143.57 -126.00 1661.05
10.724 86192.89 75896.96 78268.34 91904.52 84597.04 64706.98 46534.54 50170.77 58691.57 58574.69 3430.61 166.50 -100.90 1686.89
10.732 86187.14 75890.83 78262.38 91897.74 84589.26 64697.73 46524.73 50159.82 58696.93 58579.74 3434.77 170.32 -98.30 1689.01
