Time Ch1 Ch2 Ch3 Ch4 Ch5 Ch6 Ch7 Ch8 Ch9 Ch10 Ch11 Ch12 Ch13 Ch14
2.762 5.87 5.28 -4.20 11.62 16.65 36.70 14.91 19.01 11.07 -7.82 17.83 32.84 15.08 10.63
2.776 5.58 5.08 -3.06 10.72 15.17 32.72 13.70 17.30 13.38 -2.91 19.50 32.58 17.29 13.47
2.791 4.99 4.61 -2.73 9.80 13.99 30.04 12.63 15.87 14.00 -0.84 19.61 31.44 17.49 14.03
2.806 3.50 3.24 -1.85 6.73 9.66 20.85 8.69 10.80 10.56 0.22 14.47 22.63 12.92 10.65
2.820 1.48 1.21 -2.82 3.64 5.67 14.20 4.75 6.08 5.31 -2.78 8.25 14.64 7.01 5.41
2.835 -0.96 -1.18 -3.86 0.45 1.70 7.40 1.03 1.84 0.31 -5.21 2.29 6.70 1.45 0.39
2.849 -1.35 -1.42 -2.51 -0.41 0.30 2.85 0.03 0.62 -0.03 -2.47 1.26 3.17 0.77 0.32
2.858 1.47 1.66 1.65 2.19 2.61 2.77 2.71 3.17 2.32 2.17 3.15 3.12 2.85 2.90
2.866 4.65 5.00 5.91 4.92 4.97 3.02 5.40 5.54 5.30 7.12 5.41 3.97 5.57 6.13
2.874 3.13 3.29 4.54 2.41 1.99 -1.21 2.10 1.67 3.57 6.23 2.77 0.81 3.21 3.97
2.883 -0.37 -0.53 0.78 -1.96 -2.67 -6.37 -2.91 -3.68 -2.69 0.15 -4.13 -6.27 -3.58 -2.91
2.891 -0.59 -0.76 0.86 -2.11 -2.85 -6.62 -2.67 -3.36 -2.96 0.34 -4.40 -6.83 -3.61 -3.06
2.899 -1.56 -1.56 -0.00 -2.91 -4.07 -7.63 -3.95 -4.93 -1.27 1.99 -2.87 -5.51 -2.44 -2.13
2.908 -5.40 -5.37 -4.22 -7.06 -8.91 -12.50 -9.62 -11.16 -6.95 -4.15 -9.05 -11.69 -9.08 -8.76
2.916 -7.36 -7.29 -6.30 -8.68 -10.47 -13.75 -11.07 -12.34 -12.96 -10.46 -14.66 -16.87 -14.36 -13.72
2.924 -4.42 -4.18 -3.04 -4.49 -5.29 -7.54 -4.56 -4.66 -9.69 -7.25 -10.07 -11.67 -9.24 -8.48
2.933 2.11 2.39 3.58 2.76 2.91 1.56 4.43 5.06 0.66 2.91 0.99 -0.34 1.62 2.07
2.941 6.37 6.44 7.10 6.40 6.59 5.62 7.29 7.49 7.46 8.86 7.29 6.06 7.08 7.11
2.949 6.30 6.14 6.24 5.66 5.60 4.98 5.42 5.18 6.92 7.43 6.35 5.57 5.99 5.98
2.958 3.09 3.00 3.16 3.03 3.21 3.14 3.38 3.48 5.16 5.37 5.05 4.94 5.22 5.42
2.966 -3.39 -3.36 -3.03 -2.76 -2.34 -1.90 -1.80 -1.48 2.13 2.18 2.56 2.89 2.80 3.01
2.974 -5.67 -5.73 -5.55 -5.28 -4.96 -4.25 -4.81 -4.76 -3.48 -3.75 -2.97 -2.47 -2.94 -2.85
2.983 -1.44 -1.54 -1.64 -1.50 -1.34 -0.60 -1.61 -1.81 -4.56 -5.24 -4.47 -3.99 -4.58 -4.67
2.991 -0.11 -0.13 -0.55 -0.32 -0.22 0.49 -0.64 -0.76 -1.85 -2.86 -2.07 -1.60 -2.23 -2.44
2.999 -1.79 -1.79 -2.42 -1.91 -1.78 -0.86 -2.20 -2.08 -1.57 -2.81 -1.70 -1.02 -1.83 -2.08
3.008 -1.40 -1.41 -2.15 -1.40 -1.26 -0.04 -1.73 -1.51 -1.60 -3.08 -1.56 -0.64 -1.75 -2.13
3.016 -0.06 -0.03 -0.87 -0.01 0.17 1.48 -0.22 0.04 -0.90 -2.41 -0.80 0.24 -0.96 -1.34
3.024 0.77 0.98 0.23 1.23 1.63 2.81 1.82 2.27 0.17 -0.96 0.41 1.36 0.31 0.11
3.033 2.66 3.00 2.48 3.53 4.00 5.01 4.64 5.14 3.84 3.35 4.60 5.37 4.62 4.58
3.041 6.17 6.31 5.90 6.58 6.68 7.28 6.76 6.75 6.68 6.56 7.61 8.25 7.78 7.82
3.049 5.87 5.73 5.46 5.69 5.39 5.46 4.84 4.31 5.17 4.93 5.50 5.90 5.55 5.60
3.058 0.10 -0.11 0.10 0.27 0.05 0.05 -0.05 -0.28 1.70 1.44 1.87 2.01 1.92 2.04
3.066 -4.11 -4.31 -3.59 -3.43 -3.39 -3.22 -2.83 -2.58 -1.39 -1.40 -0.99 -1.13 -0.98 -0.93
3.074 -4.56 -4.76 -3.98 -4.13 -4.03 -4.09 -3.73 -3.53 -2.91 -2.81 -2.81 -3.27 -3.15 -3.39
3.083 -3.10 -3.22 -2.86 -3.30 -3.23 -3.59 -3.54 -3.57 -2.97 -2.86 -3.34 -3.85 -3.85 -4.18
3.091 -0.04 -0.09 -0.22 -0.63 -0.61 -0.99 -1.05 -1.19 -1.84 -1.65 -2.42 -2.79 -2.84 -3.00
3.099 -0.13 -0.27 -0.56 -0.80 -0.84 -1.09 -0.93 -0.95 -0.71 -0.36 -1.07 -1.28 -1.13 -1.09
3.108 -2.97 -3.18 -3.42 -3.61 -3.74 -3.94 -3.61 -3.51 -2.17 -1.80 -2.32 -2.45 -2.09 -2.03
3.116 -0.13 -0.19 -0.54 -0.76 -1.08 -1.49 -1.26 -1.42 -2.51 -2.29 -2.81 -2.95 -2.63 -2.54
3.124 3.63 3.74 3.14 2.93 2.51 1.96 1.98 1.51 0.62 0.79 0.32 0.30 0.40 0.66
3.133 1.06 1.20 0.52 0.46 0.16 -0.14 -0.25 -0.74 0.93 0.98 0.74 0.88 0.63 0.75
3.141 -0.04 0.17 -0.10 0.01 0.05 0.19 0.20 0.06 -0.67 -0.86 -0.69 -0.51 -0.66 -0.82
3.149 3.26 3.62 4.07 4.28 4.67 4.97 5.37 5.75 1.34 1.25 1.62 1.69 2.09 2.03
3.158 3.61 3.97 4.92 5.10 5.64 5.60 6.40 7.01 4.13 4.52 4.53 4.28 4.95 5.11
3.166 -1.31 -1.15 -0.10 -0.05 0.49 -0.01 0.97 1.58 3.18 4.03 3.70 3.21 3.82 3.97
3.174 -3.41 -3.45 -2.81 -2.99 -2.74 -3.41 -2.81 -2.44 -0.36 0.43 0.14 -0.31 0.12 0.11
3.183 0.94 0.74 0.78 0.36 0.06 -0.61 -0.70 -0.89 -1.07 -0.82 -1.04 -1.30 -1.02 -0.98
3.191 0.50 0.28 0.19 -0.19 -0.63 -0.99 -1.26 -1.54 0.27 0.05 -0.15 -0.17 -0.06 0.18
3.199 -4.37 -4.43 -4.32 -4.35 -4.50 -4.30 -4.34 -4.31 -0.77 -1.14 -1.26 -1.12 -1.38 -1.20
3.208 -2.77 -2.73 -2.68 -2.54 -2.60 -2.06 -2.16 -2.12 -1.36 -1.73 -1.79 -1.55 -1.98 -2.03
3.216 1.21 1.19 0.93 0.90 0.71 1.22 0.80 0.64 -0.57 -0.99 -0.97 -0.70 -1.12 -1.33
3.224 2.60 2.56 2.05 1.98 1.71 2.14 1.47 1.16 -0.34 -0.77 -0.59 -0.43 -0.90 -1.11
3.233 2.34 2.28 1.83 1.98 1.94 2.47 1.95 1.79 -0.53 -0.75 -0.35 -0.17 -0.38 -0.40
3.241 0.54 0.46 0.27 0.55 0.81 1.52 1.34 1.48 0.03 0.09 0.56 0.83 0.92 1.01
3.249 -1.61 -1.76 -1.89 -1.88 -1.72 -1.14 -1.42 -1.61 0.98 1.00 1.24 1.32 1.23 1.11
3.258 -3.12 -3.42 -3.69 -4.02 -4.21 -4.06 -4.61 -5.40 -2.86 -3.03 -3.01 -3.00 -3.29 -3.35
3.266 0.16 -0.10 -0.32 -0.48 -0.65 -0.72 -0.96 -1.54 -4.81 -4.84 -4.77 -4.59 -4.61 -4.27
3.274 5.00 4.95 5.08 5.35 5.54 5.49 5.92 6.24 1.93 2.21 2.34 2.50 2.94 3.39
3.282 2.50 2.65 2.97 3.22 3.54 3.24 4.00 4.65 4.42 4.82 4.73 4.60 5.16 5.35
3.291 -2.44 -2.16 -1.94 -1.98 -1.89 -2.53 -1.97 -1.72 0.53 0.80 0.37 -0.06 0.16 -0.04
3.299 -3.21 -2.87 -2.75 -2.72 -2.71 -3.28 -2.94 -2.83 0.07 0.11 -0.29 -0.71 -0.79 -1.18
3.307 -2.28 -1.91 -1.84 -1.50 -1.39 -1.68 -1.45 -1.16 2.30 2.10 2.13 1.95 1.71 1.30
3.316 -3.16 -2.89 -2.96 -2.58 -2.54 -2.81 -2.81 -2.60 -0.28 -0.67 -0.37 -0.41 -0.79 -1.18
3.324 -3.39 -3.27 -3.43 -3.29 -3.34 -3.71 -3.86 -3.81 -7.15 -7.48 -7.31 -7.29 -7.57 -7.75
3.332 2.05 2.08 2.04 1.96 1.88 1.61 1.46 1.51 -3.38 -3.42 -3.54 -3.58 -3.71 -3.73
3.341 6.92 6.69 6.86 6.57 6.44 6.35 6.20 6.23 7.63 7.75 7.60 7.52 7.46 7.49
3.349 5.42 5.02 5.40 4.97 4.91 4.93 4.95 4.96 7.53 7.73 7.71 7.84 7.96 8.11
3.357 2.69 2.42 2.84 2.44 2.47 2.50 2.71 2.72 1.58 1.94 1.91 2.13 2.38 2.60
3.366 1.36 1.29 1.60 1.28 1.35 1.31 1.53 1.57 -0.72 -0.21 -0.38 -0.27 0.06 0.32
3.374 -0.22 -0.10 0.16 -0.09 -0.07 -0.12 0.11 0.07 -0.21 0.25 -0.01 -0.07 0.29 0.50
3.382 -4.32 -4.24 -4.13 -4.35 -4.72 -4.90 -4.85 -5.25 -1.47 -1.37 -1.61 -1.79 -1.64 -1.66
3.391 -7.22 -7.35 -7.57 -7.68 -8.41 -8.75 -8.99 -9.57 -7.47 -7.77 -7.93 -8.00 -7.99 -8.14
3.399 -4.51 -4.71 -5.07 -4.89 -5.37 -5.47 -5.62 -5.77 -8.20 -8.55 -8.52 -8.39 -8.28 -8.29
3.407 -0.74 -0.83 -1.06 -0.60 -0.31 0.27 0.38 0.85 -1.28 -1.50 -1.21 -1.01 -0.87 -0.76
3.416 2.16 2.25 2.13 2.65 3.48 4.60 4.67 5.20 4.32 4.07 4.48 4.66 4.55 4.61
3.424 3.63 3.66 3.24 3.58 4.20 5.33 4.71 4.66 5.98 5.51 5.99 6.17 5.66 5.65
3.432 3.14 3.01 2.10 2.48 2.71 4.03 2.60 2.17 4.19 3.44 4.18 4.40 3.55 3.54
3.441 2.68 2.60 1.59 2.23 2.47 4.07 2.56 2.32 2.30 1.60 2.51 2.75 2.00 2.07
3.449 -0.67 -0.67 -1.30 -0.94 -0.79 0.19 -0.65 -0.78 -1.10 -1.24 -0.70 -0.44 -0.54 -0.26
3.457 -4.77 -4.48 -4.40 -4.64 -4.63 -4.72 -4.41 -4.37 -6.21 -5.64 -5.89 -5.76 -5.23 -4.87
3.466 -4.43 -3.81 -3.13 -3.61 -3.55 -4.39 -3.16 -2.79 -4.93 -4.03 -4.86 -5.17 -4.56 -4.57
3.474 0.29 0.78 1.45 1.06 0.94 -0.31 0.83 1.13 0.78 1.44 0.59 0.01 0.27 -0.21
3.482 6.68 6.76 7.27 7.10 6.67 5.18 5.92 5.91 5.30 5.60 5.02 4.56 4.61 4.07
3.491 6.08 5.86 6.46 6.33 5.86 4.20 4.89 4.72 5.89 6.04 5.54 5.32 5.28 5.02
3.499 -0.19 -0.44 0.20 -0.05 -0.28 -1.72 -1.08 -1.18 1.34 1.36 0.91 0.85 0.65 0.62
3.507 -2.33 -2.52 -2.11 -2.44 -2.47 -3.45 -3.06 -3.08 -1.57 -1.71 -1.90 -1.90 -2.09 -2.04
3.516 -1.00 -1.28 -1.38 -1.74 -1.98 -2.69 -2.76 -3.04 -1.52 -1.79 -1.73 -1.73 -1.74 -1.70
3.524 1.26 0.96 0.62 0.47 0.19 -0.07 -0.37 -0.64 -1.23 -1.52 -1.34 -1.32 -1.22 -1.19
3.532 0.32 0.21 0.15 0.31 0.50 0.96 0.89 1.16 -0.63 -0.66 -0.36 -0.21 0.01 0.16
3.541 -4.67 -4.72 -4.58 -4.38 -4.03 -3.06 -3.15 -2.70 -2.33 -2.09 -1.62 -1.29 -0.91 -0.60
3.549 -5.83 -5.98 -5.91 -5.80 -5.69 -4.55 -4.88 -4.70 -4.23 -4.12 -3.65 -3.39 -3.00 -2.80
3.557 -2.85 -2.98 -2.97 -2.87 -2.88 -1.87 -2.17 -2.20 -3.41 -3.66 -3.44 -3.49 -3.33 -3.41
3.566 0.42 0.55 0.53 0.82 0.91 1.79 1.69 1.77 -0.69 -0.88 -0.83 -1.02 -1.12 -1.24
3.574 1.80 2.16 2.24 2.66 2.94 3.72 3.89 4.32 2.39 2.71 2.74 2.69 2.56 2.63
3.583 0.93 1.22 1.19 1.25 1.36 1.55 1.75 2.01 2.56 3.08 2.83 2.80 2.81 2.94
3.591 1.79 1.90 1.54 1.17 0.89 0.48 0.43 0.14 1.82 2.02 1.42 1.20 1.22 1.18
3.599 2.66 2.66 2.30 2.03 1.81 1.45 1.26 0.94 2.78 2.66 2.20 1.96 1.78 1.61
3.608 2.25 2.10 1.84 1.85 1.84 1.75 1.38 1.20 3.23 2.92 2.89 2.88 2.41 2.22
3.616 3.75 3.45 3.11 3.14 3.10 2.97 2.36 2.01 2.82 2.26 2.49 2.64 2.14 1.95
3.624 3.16 2.99 2.60 2.52 2.43 2.09 1.64 1.07 0.70 0.11 0.39 0.57 0.33 0.28
3.633 -1.43 -1.35 -1.56 -1.56 -1.53 -1.80 -1.75 -2.12 -2.47 -2.70 -2.37 -2.15 -2.13 -1.96
3.641 -4.02 -3.79 -3.60 -3.42 -3.10 -3.10 -2.56 -2.33 -3.30 -3.05 -2.69 -2.46 -2.27 -2.07
3.649 -1.20 -0.94 -0.57 -0.42 -0.03 0.02 0.64 1.15 -1.13 -0.70 -0.56 -0.48 -0.14 -0.09
3.658 2.15 2.31 2.51 2.44 2.55 2.59 2.85 3.14 2.61 2.94 2.80 2.69 3.11 3.09
3.666 -0.79 -0.70 -0.62 -0.83 -0.94 -0.84 -1.01 -1.02 1.96 2.21 2.03 1.91 2.28 2.35
3.674 -5.15 -5.04 -5.00 -5.18 -5.36 -5.29 -5.64 -5.87 -4.18 -3.97 -4.22 -4.24 -4.09 -3.89
3.683 -3.48 -3.43 -3.27 -3.28 -3.39 -3.33 -3.48 -3.60 -6.09 -5.93 -6.27 -6.22 -6.28 -6.09
3.691 0.98 0.92 1.27 1.33 1.31 1.36 1.39 1.48 -2.05 -2.01 -2.23 -2.25 -2.37 -2.35
3.699 3.82 3.64 3.85 3.73 3.65 3.52 3.30 3.29 2.88 2.68 2.62 2.40 2.20 1.94
3.708 3.18 2.95 2.88 2.82 2.79 2.54 2.15 2.13 5.06 4.70 4.68 4.39 4.00 3.55
3.716 -0.39 -0.64 -0.81 -0.52 -0.49 -0.70 -0.83 -0.59 1.39 1.11 1.09 0.98 0.50 0.24
3.725 -3.11 -3.41 -3.57 -3.13 -3.21 -3.35 -3.22 -2.92 -2.94 -3.16 -3.02 -2.78 -3.07 -2.90
3.733 -2.54 -2.70 -2.77 -2.28 -2.25 -2.24 -2.06 -1.75 -3.68 -3.98 -3.41 -2.85 -2.78 -2.47
3.741 0.43 0.57 0.52 1.04 1.31 1.49 1.73 2.07 -1.09 -1.39 -0.50 0.02 0.24 0.28
3.750 1.62 1.80 1.72 1.92 2.16 2.25 2.59 2.73 3.70 3.59 4.18 4.19 4.23 3.97
3.758 0.52 0.57 0.57 0.26 0.28 0.17 0.65 0.53 4.23 4.36 4.27 3.79 3.76 3.44
3.766 0.37 0.37 0.49 -0.09 -0.20 -0.30 0.26 0.08 1.37 1.73 1.25 0.82 1.02 0.93
3.774 0.16 0.17 0.26 -0.17 -0.32 -0.28 0.10 -0.04 -0.35 0.14 -0.22 -0.28 0.11 0.34
3.783 -0.95 -0.93 -1.04 -1.30 -1.69 -1.64 -1.74 -1.95 -2.62 -2.18 -2.35 -2.16 -1.83 -1.40
3.791 -2.32 -2.36 -2.64 -3.00 -3.67 -3.67 -4.08 -4.53 -4.28 -4.13 -4.42 -4.29 -4.16 -3.82
3.799 -1.26 -1.21 -1.24 -1.43 -1.80 -1.58 -1.73 -2.00 -2.78 -2.91 -3.26 -3.37 -3.33 -3.37
3.808 4.51 4.78 5.12 5.30 5.55 6.04 6.25 6.44 2.86 2.73 2.69 2.46 2.52 2.23
3.816 6.42 6.62 6.85 6.99 7.35 7.77 7.61 7.67 6.92 6.81 6.94 6.83 6.70 6.47
3.824 0.54 0.51 0.33 0.22 0.39 0.57 -0.20 -0.57 2.69 2.59 2.59 2.68 2.41 2.40
3.833 -2.91 -3.00 -3.32 -3.40 -3.24 -3.29 -4.13 -4.47 -2.31 -2.22 -2.40 -2.22 -2.39 -2.19
3.841 0.45 0.54 0.39 0.56 0.88 0.62 0.13 0.15 -1.01 -0.87 -1.24 -1.23 -1.38 -1.22
3.849 3.43 3.64 3.61 3.85 4.11 3.75 3.50 3.66 1.41 1.32 1.01 0.89 0.62 0.55
3.858 -0.34 -0.28 -0.28 -0.36 -0.32 -0.59 -0.78 -0.79 -0.43 -0.75 -0.70 -0.73 -1.02 -1.15
3.866 -4.99 -5.07 -4.83 -5.01 -4.81 -4.77 -4.57 -4.43 -3.36 -3.58 -3.27 -3.19 -3.31 -3.30
3.874 -3.44 -3.51 -3.17 -3.15 -2.79 -2.67 -2.06 -1.64 -2.17 -2.02 -1.68 -1.58 -1.39 -1.30
3.882 -1.24 -1.33 -1.15 -1.14 -1.14 -1.18 -0.66 -0.47 -0.37 -0.02 0.04 0.00 0.36 0.42
3.891 -1.28 -1.30 -1.18 -1.18 -1.49 -1.47 -1.04 -1.02 -0.74 -0.45 -0.61 -0.83 -0.41 -0.44
3.899 -1.60 -1.57 -1.45 -1.25 -1.44 -1.35 -0.88 -0.67 0.09 0.19 0.22 0.07 0.41 0.30
3.907 -2.19 -2.22 -2.19 -1.73 -1.74 -1.76 -1.40 -1.07 0.64 0.51 0.92 1.01 1.08 0.89
3.916 0.05 -0.11 -0.21 0.28 0.20 0.00 0.13 0.33 -0.40 -0.65 0.04 0.32 0.27 0.11
3.924 3.59 3.29 3.10 3.25 3.00 2.64 2.61 2.58 0.41 0.12 0.59 0.86 0.78 0.75
3.932 5.11 4.77 4.47 4.23 3.91 3.40 3.33 3.04 2.56 2.26 2.17 2.17 1.98 1.99
3.941 4.88 4.53 4.11 3.71 3.30 2.62 2.39 1.84 2.74 2.47 2.05 1.90 1.63 1.69
3.949 0.57 0.42 0.29 0.10 -0.24 -0.75 -0.83 -1.22 0.45 0.39 -0.05 -0.18 -0.34 -0.15
3.957 -5.46 -5.31 -4.96 -4.84 -4.86 -4.87 -4.49 -4.34 -3.30 -2.96 -3.25 -3.35 -3.18 -2.95
3.966 -5.68 -5.56 -5.18 -5.23 -5.13 -4.99 -4.62 -4.33 -5.62 -5.20 -5.40 -5.46 -5.10 -4.95
3.974 0.46 0.48 0.65 0.25 0.30 0.31 0.37 0.44 -2.79 -2.50 -2.78 -2.88 -2.61 -2.60
3.982 3.97 4.19 4.29 3.90 4.10 4.22 4.20 4.23 2.87 3.10 2.87 2.75 2.86 2.79
3.991 1.24 1.71 1.78 1.65 2.09 2.53 2.51 2.69 4.99 5.26 5.16 5.10 4.98 4.88
3.999 0.12 0.55 0.43 0.44 0.88 1.53 1.27 1.51 3.03 3.32 3.38 3.43 3.22 3.19
4.007 1.42 1.60 1.10 1.07 1.23 1.81 1.08 0.96 1.01 1.00 1.14 1.38 1.13 1.18
4.016 -0.29 -0.23 -0.90 -0.95 -1.13 -0.69 -1.69 -2.36 -0.55 -1.02 -1.00 -0.71 -1.25 -1.32
4.024 -1.77 -1.73 -2.13 -2.02 -2.29 -1.68 -2.57 -3.25 -2.87 -3.51 -3.46 -3.20 -3.90 -4.03
4.032 0.96 0.99 1.01 1.45 1.42 2.41 1.70 1.56 -1.95 -2.56 -2.11 -1.77 -2.30 -2.36
4.041 1.99 2.00 2.29 3.03 3.40 4.42 4.08 4.54 2.72 2.31 3.14 3.44 3.33 3.31
4.049 -1.47 -1.61 -1.19 -0.62 -0.04 0.30 0.60 1.31 3.23 3.16 3.85 3.92 4.30 4.29
4.057 -1.05 -1.45 -1.07 -1.04 -0.85 -1.54 -0.87 -0.54 -0.17 0.07 0.08 -0.14 0.44 0.37
4.066 2.61 2.07 2.30 1.90 1.52 0.33 0.95 0.75 -0.84 -0.48 -0.96 -1.36 -0.76 -0.81
4.074 1.08 0.77 0.88 0.48 0.04 -0.69 -0.28 -0.63 0.40 0.68 0.23 -0.15 0.47 0.61
4.082 -3.71 -3.57 -3.44 -3.61 -3.77 -3.80 -3.41 -3.54 -0.41 -0.14 -0.43 -0.73 -0.25 -0.02
4.091 -5.19 -4.85 -4.67 -4.69 -4.61 -4.39 -3.87 -3.62 -3.38 -3.11 -3.28 -3.51 -3.36 -3.23
4.099 -2.49 -2.24 -2.19 -2.22 -2.13 -2.15 -1.77 -1.56 -4.06 -4.00 -4.07 -4.24 -4.46 -4.52
4.107 -0.80 -0.75 -0.95 -1.13 -1.19 -1.62 -1.62 -1.75 -2.11 -2.33 -2.36 -2.54 -2.90 -3.04
4.116 0.59 0.57 0.22 -0.06 -0.06 -0.62 -0.81 -0.99 -0.70 -1.02 -1.10 -1.24 -1.49 -1.67
4.124 3.78 3.83 3.50 3.42 3.54 3.09 2.99 2.94 1.74 1.51 1.45 1.47 1.30 1.00
4.132 2.55 2.68 2.51 2.75 2.87 2.57 2.71 2.87 3.09 3.08 3.10 3.35 3.24 3.00
4.141 0.23 0.49 0.60 1.02 1.14 0.95 1.27 1.59 1.98 2.19 2.38 2.74 2.75 2.76
4.149 1.01 1.23 1.50 1.74 1.71 1.42 1.61 1.80 1.82 2.06 2.35 2.72 2.77 3.00
4.157 -0.09 -0.14 0.04 -0.15 -0.53 -1.01 -1.19 -1.32 0.28 0.36 0.43 0.77 0.68 1.01
4.166 0.51 0.24 0.29 -0.13 -0.79 -1.15 -1.70 -2.12 -2.26 -2.33 -2.51 -2.34 -2.57 -2.32
4.174 3.05 2.67 2.73 2.46 1.89 1.86 1.40 1.07 -1.40 -1.40 -1.73 -1.82 -1.95 -1.81
4.182 1.83 1.47 1.67 1.56 1.45 1.71 1.83 1.82 0.90 1.15 0.72 0.46 0.65 0.74
4.191 -0.75 -0.98 -0.77 -0.86 -0.68 -0.36 0.12 0.19 1.42 1.83 1.47 1.18 1.60 1.64
4.199 -0.81 -0.95 -0.91 -0.90 -0.74 -0.50 -0.20 -0.13 1.33 1.57 1.47 1.31 1.57 1.57
4.207 1.21 1.18 1.08 1.38 1.59 1.78 1.84 2.04 2.47 2.45 2.72 2.79 2.75 2.72
4.216 -1.80 -1.80 -1.97 -1.55 -1.25 -1.05 -1.00 -0.68 1.30 1.12 1.61 1.87 1.68 1.61
4.224 -7.67 -7.69 -7.92 -7.72 -7.40 -7.11 -7.06 -6.75 -3.32 -3.48 -3.05 -2.82 -2.96 -3.12
4.232 -3.79 -3.66 -3.99 -4.02 -3.75 -3.39 -3.57 -3.49 -4.13 -4.16 -3.87 -3.75 -3.81 -3.96
4.240 2.48 2.78 2.33 2.25 2.33 2.65 2.11 1.87 -1.27 -1.41 -1.52 -1.52 -1.76 -1.80
4.249 1.63 1.90 1.50 1.32 1.20 1.54 0.94 0.46 -1.66 -1.96 -2.44 -2.63 -3.03 -3.00
4.257 1.91 2.02 1.84 1.60 1.49 2.04 1.81 1.44 -1.66 -1.84 -2.08 -2.41 -2.50 -2.45
4.265 4.43 4.55 4.56 4.57 4.69 5.43 5.60 5.63 4.39 4.41 4.49 4.16 4.52 4.48
4.274 2.39 2.67 2.51 2.70 2.92 3.47 3.52 3.59 7.32 7.36 7.38 7.13 7.68 7.52
4.282 -4.23 -4.04 -4.48 -4.44 -4.51 -4.41 -4.74 -5.01 -1.40 -1.61 -1.80 -1.94 -1.61 -1.71
4.290 -6.22 -6.17 -6.35 -6.37 -6.52 -6.62 -6.73 -6.91 -8.40 -8.68 -8.79 -8.87 -8.78 -8.77
4.299 1.48 1.57 2.04 2.11 2.25 2.27 2.67 2.96 -1.89 -1.85 -1.59 -1.58 -1.46 -1.39
4.307 5.97 6.05 6.93 6.94 7.19 7.27 7.62 8.05 6.27 6.32 6.69 6.84 6.78 6.83
4.315 0.57 0.51 1.40 1.25 1.33 1.26 1.14 1.31 4.37 4.26 4.56 4.85 4.49 4.53
4.324 -2.96 -3.22 -2.42 -2.64 -2.77 -3.08 -3.53 -3.56 -3.35 -3.47 -3.02 -2.57 -2.91 -2.87
4.332 0.32 -0.06 0.84 0.86 0.72 0.23 -0.21 -0.11 -4.13 -4.46 -3.89 -3.42 -3.75 -3.90
4.340 2.63 2.32 3.22 3.49 3.52 2.83 2.68 2.98 4.31 3.77 4.22 4.53 4.16 3.90
4.349 -1.59 -1.83 -1.53 -1.35 -1.32 -2.37 -2.22 -2.05 5.46 5.20 5.25 5.35 5.16 5.09
4.357 -5.24 -5.49 -6.00 -6.11 -6.22 -7.53 -7.21 -7.43 -3.18 -2.75 -3.24 -3.37 -3.22 -3.03
4.365 -0.30 -0.49 -1.31 -1.57 -1.66 -2.80 -2.28 -2.66 -5.88 -4.84 -5.66 -5.90 -5.52 -5.17
4.374 4.63 4.62 4.05 3.99 4.04 3.33 4.13 3.95 0.23 1.34 0.51 0.27 0.48 0.76
4.382 1.55 1.80 1.33 1.56 1.52 1.28 1.99 1.97 4.55 5.39 4.80 4.49 4.59 4.62
4.391 -2.51 -2.25 -3.12 -2.84 -3.21 -3.10 -2.88 -2.91 -0.90 -0.54 -0.86 -1.10 -0.83 -0.86
4.399 -1.01 -0.87 -2.01 -1.80 -2.27 -1.86 -1.87 -1.78 -6.45 -6.61 -6.77 -6.71 -6.52 -6.39
4.407 2.76 2.99 2.14 2.38 2.27 3.08 3.35 3.74 -1.03 -1.26 -1.15 -0.93 -0.84 -0.75
4.416 1.74 2.03 1.65 1.83 1.96 3.05 3.31 3.62 4.64 4.52 4.92 5.09 5.11 4.95
4.424 -1.84 -1.79 -2.01 -2.23 -2.43 -1.47 -1.93 -2.36 2.30 1.97 2.44 2.48 2.27 1.92
4.433 -1.53 -1.83 -2.08 -2.73 -3.28 -2.56 -3.54 -4.48 -2.23 -2.88 -2.64 -2.68 -3.07 -3.36
4.441 0.36 0.04 0.18 -0.39 -0.56 0.27 -0.39 -0.87 -3.13 -3.88 -3.85 -3.94 -4.29 -4.39
4.449 2.25 2.31 3.11 3.04 3.62 4.65 4.62 4.89 1.39 0.90 1.07 0.86 0.85 0.82
4.458 2.75 3.01 4.04 4.23 5.07 5.83 6.14 6.62 5.32 5.13 5.38 5.16 5.33 5.29
4.466 -0.39 -0.30 0.50 0.54 1.09 1.28 1.58 1.82 4.08 4.00 4.08 3.93 3.92 3.88
4.475 -2.12 -2.23 -1.71 -1.82 -1.71 -1.99 -1.87 -1.94 1.58 1.59 1.52 1.30 1.30 1.26
4.483 -1.45 -1.53 -1.13 -1.27 -1.41 -2.11 -2.06 -2.17 -0.66 -0.47 -0.75 -0.96 -0.71 -0.61
4.491 -1.37 -1.29 -0.89 -0.98 -1.05 -1.95 -1.85 -1.69 -2.71 -2.37 -2.74 -2.74 -2.32 -2.00
4.500 -1.74 -1.60 -1.22 -1.14 -1.07 -1.74 -1.96 -1.55 -3.49 -3.25 -3.43 -3.25 -2.96 -2.63
4.508 -2.05 -1.91 -1.65 -1.35 -1.17 -1.47 -2.46 -1.90 -3.78 -3.79 -3.68 -3.36 -3.37 -3.12
4.516 -0.59 -0.47 -0.35 0.04 0.24 0.06 -1.42 -0.82 -2.86 -2.83 -2.38 -1.88 -1.88 -1.65
4.525 0.29 0.30 0.28 0.56 0.65 0.33 -0.74 -0.29 -1.30 -1.09 -0.61 -0.15 -0.17 -0.12
4.533 0.06 -0.06 -0.32 -0.25 -0.36 -0.83 -0.95 -0.93 -0.49 -0.41 -0.24 -0.09 -0.50 -0.83
4.541 2.32 2.05 1.43 1.24 0.73 0.04 0.54 -0.18 0.96 0.80 0.73 0.60 0.06 -0.41
4.550 3.24 2.95 2.22 1.94 1.24 0.45 1.23 0.07 1.93 1.76 1.44 1.25 1.02 0.79
4.558 0.97 0.89 0.45 0.46 0.18 -0.15 1.03 0.23 1.87 2.02 1.78 1.63 1.92 1.95
4.566 -0.22 -0.14 -0.39 -0.10 -0.02 0.21 1.61 1.25 1.95 2.35 2.39 2.25 2.77 2.88
4.575 1.56 1.64 1.20 1.37 1.31 1.61 2.52 2.15 2.13 2.32 2.08 1.87 1.88 1.96
4.583 3.55 3.53 2.91 2.76 2.55 2.64 2.77 2.36 3.03 3.03 2.46 2.28 1.85 1.90
4.591 0.27 0.24 -0.11 -0.35 -0.16 0.04 -0.02 0.10 1.69 1.79 1.51 1.43 1.26 1.35
4.600 -4.69 -4.55 -4.36 -4.46 -3.73 -3.05 -2.80 -1.98 -2.27 -2.09 -1.87 -1.95 -1.65 -1.63
4.608 -4.54 -4.43 -3.92 -4.01 -3.42 -2.52 -2.35 -1.49 -3.51 -3.47 -3.02 -3.05 -2.64 -2.71
4.616 -1.62 -1.64 -1.04 -1.16 -1.03 -0.27 -0.51 0.04 -1.38 -1.56 -1.28 -1.15 -1.13 -1.18
4.625 1.05 0.99 1.62 1.59 1.67 2.31 1.87 2.29 2.55 2.23 2.37 2.57 2.20 2.07
4.633 1.69 1.60 2.02 2.14 2.32 2.95 2.42 2.72 4.14 3.71 4.05 4.31 3.84 3.63
4.641 -0.12 -0.13 -0.14 0.14 0.24 0.67 0.15 0.21 -0.26 -0.75 -0.21 0.08 -0.26 -0.42
4.650 -1.83 -1.77 -2.10 -1.92 -2.00 -2.18 -2.48 -2.65 -4.78 -5.07 -4.72 -4.50 -4.51 -4.47
4.658 -1.55 -1.58 -1.90 -2.06 -2.26 -3.09 -3.13 -3.38 -4.64 -4.64 -4.96 -4.93 -4.72 -4.52
4.666 1.29 1.14 0.98 0.52 0.19 -0.83 -0.88 -1.19 -1.79 -1.62 -2.56 -2.73 -2.59 -2.46
4.675 3.01 2.82 2.70 2.29 1.87 1.09 0.85 0.50 0.88 1.14 0.37 0.26 0.40 0.57
4.683 2.66 2.75 2.77 2.77 2.57 2.26 2.13 2.00 2.60 2.93 2.75 2.63 2.89 3.14
4.691 3.37 3.73 3.83 4.05 3.91 3.91 3.83 3.78 4.39 4.69 4.71 4.34 4.50 4.54
4.700 1.57 1.76 1.60 1.62 1.16 1.13 0.75 0.47 2.63 2.75 2.86 2.63 2.76 2.74
4.708 -2.86 -2.82 -3.12 -3.12 -3.60 -3.68 -4.02 -4.23 -3.44 -3.43 -3.00 -2.86 -2.52 -2.41
4.716 -4.49 -4.46 -4.55 -4.22 -4.47 -4.46 -4.35 -4.25 -6.04 -6.12 -5.62 -5.55 -5.31 -5.44
4.725 -3.76 -3.82 -3.55 -2.89 -2.98 -2.77 -2.32 -2.00 -3.08 -3.35 -3.17 -3.34 -3.52 -3.93
4.733 -1.82 -1.93 -1.39 -0.66 -0.63 -0.22 0.28 0.64 0.80 0.61 0.61 0.50 0.18 -0.02
4.741 0.93 0.78 1.24 1.70 1.77 2.13 2.35 2.48 2.87 2.95 3.07 3.22 3.10 3.31
4.750 2.72 2.72 2.87 3.08 3.19 3.48 3.40 3.31 2.95 3.05 3.19 3.33 3.24 3.41
4.758 3.08 3.25 3.19 3.26 3.35 3.58 3.37 3.22 2.56 2.42 2.34 2.31 1.88 1.68
4.766 2.19 2.28 2.23 2.08 2.34 2.48 2.31 2.17 2.74 2.59 2.45 2.57 2.05 1.85
4.775 1.19 1.21 1.36 0.96 1.75 1.90 1.92 1.92 2.78 2.92 2.91 3.20 3.06 3.10
4.783 0.32 0.25 0.41 -0.28 0.58 0.57 0.61 0.51 1.55 1.80 1.69 1.75 1.93 1.99
4.791 -1.24 -1.38 -1.33 -2.24 -1.57 -1.85 -1.86 -2.08 -0.58 -0.45 -0.74 -0.85 -0.50 -0.40
4.800 -2.55 -2.61 -2.58 -3.63 -2.63 -2.98 -3.00 -2.98 -2.70 -2.70 -2.90 -2.91 -2.58 -2.36
4.808 -2.59 -2.67 -2.81 -3.96 -2.82 -3.28 -3.46 -3.44 -3.69 -3.90 -3.92 -3.80 -3.83 -3.65
4.816 -2.36 -2.50 -2.66 -3.53 -3.05 -3.57 -3.69 -3.76 -3.41 -3.71 -3.63 -3.53 -3.75 -3.71
4.825 -3.16 -3.21 -3.17 -3.27 -3.83 -4.21 -3.78 -3.71 -4.18 -4.35 -4.16 -4.22 -4.26 -4.34
4.833 -2.20 -2.05 -2.07 -1.35 -2.52 -2.65 -1.72 -1.41 -3.78 -3.67 -3.44 -3.62 -3.30 -3.47
4.841 3.25 3.53 3.11 4.22 3.09 3.11 3.95 4.34 1.47 1.81 1.81 1.61 2.06 1.77
4.850 7.96 8.09 7.26 8.17 6.91 6.75 7.01 6.97 6.55 6.95 6.56 6.35 6.48 6.24
4.858 5.34 5.31 4.57 5.10 3.79 3.55 3.54 3.16 5.61 5.99 5.53 5.39 5.41 5.56
4.866 -1.42 -1.43 -1.64 -1.30 -2.06 -2.05 -1.79 -1.82 0.01 0.28 -0.00 -0.08 0.17 0.61
4.874 -3.57 -3.61 -3.42 -3.05 -3.21 -3.10 -2.68 -2.32 -2.65 -2.53 -2.82 -3.03 -2.67 -2.43
4.883 -1.51 -1.75 -1.38 -0.97 -0.78 -0.79 -0.60 -0.29 0.01 0.13 -0.26 -0.62 -0.34 -0.44
4.891 -0.66 -1.07 -0.79 -0.66 -0.44 -0.62 -0.85 -0.89 0.30 0.45 0.11 -0.18 -0.01 -0.20
4.899 -0.01 -0.39 -0.12 -0.38 -0.11 -0.24 -0.64 -0.76 -1.29 -1.20 -1.22 -1.30 -1.10 -1.09
4.908 -0.35 -0.58 -0.11 -0.48 0.02 0.30 -0.29 -0.22 -1.21 -1.41 -0.95 -0.80 -0.80 -0.70
4.916 -1.82 -1.94 -1.57 -1.91 -1.56 -0.94 -2.03 -2.25 -3.10 -3.70 -3.09 -2.72 -3.36 -3.34
4.924 0.68 0.76 0.76 0.62 0.84 1.81 0.33 -0.20 -3.44 -4.27 -3.61 -2.99 -4.20 -4.24
4.933 4.06 4.49 4.20 4.52 5.19 6.84 5.12 4.89 1.02 -0.08 1.09 2.13 0.54 0.38
4.941 2.50 3.15 2.86 3.54 4.71 6.68 5.12 5.34 5.82 4.67 6.27 7.46 5.96 5.75
4.949 -2.59 -2.14 -2.16 -1.66 -0.74 0.32 -0.21 0.11 6.05 5.61 6.54 7.16 6.58 6.47
4.961 -5.85 -5.85 -5.62 -5.80 -5.79 -6.44 -5.58 -5.51 -0.18 0.33 -0.27 -0.66 0.03 0.05
4.973 -2.15 -2.36 -2.01 -2.67 -3.22 -4.87 -3.12 -3.11 -3.78 -2.79 -4.26 -5.26 -3.76 -3.64
4.985 3.32 3.22 3.49 2.80 2.25 0.76 2.31 2.33 -0.13 0.76 -0.31 -1.08 0.32 0.50
4.997 3.09 3.13 3.16 2.60 2.01 0.96 1.78 1.52 1.51 1.98 1.54 1.19 1.94 1.98
5.009 3.09 3.13 3.16 2.60 2.01 0.96 1.78 1.52 1.51 1.98 1.53 1.19 1.94 1.98
5.021 0.44 0.54 0.41 0.10 -0.42 -1.21 -0.69 -1.10 -0.46 -0.32 -0.51 -0.81 -0.69 -0.93
5.033 -0.62 -0.36 -0.61 -0.65 -0.74 -1.23 -0.81 -1.02 -1.54 -1.63 -1.58 -1.90 -2.18 -2.48
5.045 0.17 0.78 0.59 0.72 1.13 1.09 1.43 1.68 -0.24 -0.31 -0.03 -0.14 -0.36 -0.27
5.057 -1.01 -0.33 -0.33 -0.11 0.27 0.56 0.64 1.13 1.32 1.45 1.83 1.92 2.02 2.37
5.069 -5.96 -5.80 -5.98 -5.76 -6.19 -5.86 -6.48 -6.49 -2.98 -3.01 -2.68 -2.53 -2.52 -2.44
5.080 -4.88 -5.36 -5.90 -5.64 -6.70 -6.46 -7.38 -7.88 -8.23 -8.51 -8.24 -7.99 -8.22 -8.30
5.092 3.73 3.06 2.58 3.03 2.36 2.66 2.23 2.03 -3.81 -4.06 -3.73 -3.31 -3.50 -3.41
5.104 9.36 9.00 8.99 9.62 9.83 10.31 10.54 11.10 6.76 6.66 6.91 7.23 7.05 7.13
5.116 9.44 9.16 9.56 10.01 10.65 10.89 11.50 12.40 13.55 13.75 13.52 13.41 13.29 13.18
5.128 3.80 3.22 3.72 3.62 4.12 3.75 4.28 4.87 10.77 11.27 10.45 10.05 10.20 10.08
5.140 -4.40 -5.19 -4.64 -5.25 -4.98 -5.90 -5.34 -5.18 0.68 1.36 0.12 -0.43 0.11 0.09
5.152 -7.26 -8.24 -7.66 -8.73 -8.67 -10.28 -9.18 -9.55 -7.66 -6.74 -8.54 -9.32 -8.45 -8.41
5.164 -5.47 -6.33 -5.84 -7.15 -7.13 -8.98 -7.57 -8.32 -10.26 -9.37 -11.39 -12.08 -11.21 -10.97
5.169 -3.55 -3.65 -3.41 -4.22 -3.97 -4.72 -4.10 -4.63 -8.13 -7.81 -8.76 -8.85 -8.38 -8.02
5.173 -3.94 -3.20 -3.52 -3.51 -3.35 -2.46 -3.63 -4.02 -4.62 -5.23 -4.42 -3.90 -4.27 -4.20
5.178 -3.34 -2.33 -3.16 -2.68 -2.83 -1.05 -3.40 -3.98 -4.21 -5.52 -3.62 -2.74 -3.80 -4.00
5.183 3.39 4.23 3.48 4.11 4.18 5.98 4.18 3.90 -1.33 -2.54 -0.67 0.28 -0.68 -0.76
5.188 9.80 10.60 10.37 11.09 11.72 13.31 12.64 13.11 8.41 7.67 9.02 9.66 8.99 8.97
5.192 9.06 9.84 9.95 10.55 11.33 12.63 12.34 13.16 14.62 14.21 15.08 15.26 14.69 14.51
5.197 3.02 3.38 3.53 3.72 4.05 4.72 4.39 4.94 10.55 10.47 10.80 10.65 10.36 10.16
5.202 -4.89 -4.90 -4.81 -4.93 -5.19 -5.12 -5.41 -5.28 0.29 0.40 0.36 0.08 0.16 0.06
5.206 -9.14 -9.27 -9.37 -9.59 -10.41 -10.78 -10.90 -11.25 -9.68 -9.59 -9.71 -10.03 -9.82 -9.87
5.211 -6.10 -6.26 -6.53 -6.64 -7.81 -8.45 -8.19 -8.80 -11.51 -11.41 -11.57 -11.80 -11.67 -11.59
5.216 -0.44 -0.63 -0.66 -0.40 -1.34 -1.74 -0.98 -1.09 -4.49 -4.27 -4.37 -4.44 -4.19 -4.05
5.221 1.82 1.57 1.89 2.43 1.92 1.94 2.84 3.38 2.10 2.38 2.31 2.26 2.68 2.62
5.225 2.32 2.12 2.46 2.91 2.54 2.60 3.19 3.67 3.38 3.55 3.40 3.27 3.59 3.34
5.230 3.62 3.51 3.54 3.79 3.52 3.16 3.41 3.47 3.11 3.20 3.08 2.98 3.14 3.04
5.235 3.66 3.58 3.35 3.49 3.57 2.78 2.99 2.91 3.97 4.21 4.18 4.12 4.25 4.40
5.240 0.81 0.69 0.46 0.56 1.03 0.06 0.34 0.37 2.80 3.13 3.20 3.18 3.33 3.51
5.244 -2.85 -3.13 -3.31 -3.23 -2.67 -3.82 -3.70 -3.63 -2.65 -2.54 -2.37 -2.19 -2.26 -2.17
5.249 -1.69 -2.02 -2.08 -2.11 -1.59 -2.75 -2.76 -2.76 -5.28 -5.39 -5.28 -4.92 -5.32 -5.18
5.257 2.40 2.20 2.24 1.89 2.40 1.71 1.78 1.65 -0.26 -0.35 -0.55 -0.27 -0.62 -0.49
5.266 1.78 1.72 1.71 0.97 1.47 1.42 1.58 1.15 3.95 3.98 3.25 3.24 3.16 3.11
5.274 -1.92 -1.90 -1.87 -2.70 -2.23 -1.79 -1.59 -2.27 1.29 1.38 0.32 0.03 0.14 -0.04
5.282 -3.18 -3.31 -3.15 -3.82 -3.61 -3.01 -2.90 -3.70 -3.93 -3.95 -4.84 -5.25 -5.15 -5.30
5.291 0.15 -0.03 0.22 -0.25 -0.27 0.39 0.39 -0.30 -3.92 -4.02 -4.41 -4.78 -4.61 -4.63
5.299 2.48 2.56 2.96 2.85 2.95 3.80 3.89 3.70 3.07 3.11 3.22 3.14 3.50 3.62
5.307 -2.04 -1.71 -1.29 -1.04 -0.79 -0.02 0.02 0.36 5.18 5.37 5.72 6.00 6.21 6.35
5.316 -4.23 -3.77 -3.48 -3.04 -2.86 -2.37 -2.48 -1.90 -0.50 -0.21 0.29 0.65 0.74 0.89
5.324 -0.59 -0.16 -0.01 0.42 0.32 0.59 0.27 0.74 -1.56 -1.36 -0.76 -0.64 -0.50 -0.41
5.333 0.26 0.40 0.30 0.50 -0.06 -0.03 -0.87 -0.81 -0.63 -0.97 -0.60 -0.66 -0.88 -1.04
5.341 -0.56 -0.63 -0.98 -0.97 -1.82 -1.75 -2.92 -2.91 -4.13 -4.83 -4.67 -4.54 -4.98 -5.06
5.349 0.27 0.23 -0.26 -0.23 -1.07 -0.66 -1.69 -1.21 -4.50 -4.96 -4.72 -4.39 -4.54 -4.35
5.358 3.07 3.19 2.74 2.99 2.48 3.14 2.50 3.64 -0.10 -0.22 0.08 0.16 0.23 0.34
5.366 7.16 7.29 7.22 7.62 7.69 8.28 8.11 9.81 6.00 6.14 6.35 6.03 6.03 5.83
5.374 7.51 7.37 7.48 7.66 7.94 7.97 7.78 9.35 9.96 10.15 10.19 9.70 9.42 9.01
5.383 4.72 4.48 4.39 4.20 4.31 3.61 3.30 4.17 5.00 5.06 4.87 4.48 4.18 3.94
5.391 0.04 -0.13 -0.24 -0.58 -0.44 -1.55 -1.26 -0.86 -2.62 -2.50 -2.97 -3.18 -3.08 -2.97
5.399 -6.17 -6.32 -6.25 -6.55 -6.32 -7.46 -6.50 -6.35 -4.25 -3.94 -4.49 -4.59 -4.26 -4.10
5.408 -8.84 -8.96 -8.85 -9.01 -8.84 -9.71 -8.73 -8.91 -2.95 -2.69 -2.96 -2.89 -2.68 -2.59
5.416 -8.68 -8.73 -8.68 -8.71 -8.62 -9.09 -8.40 -9.08 -3.12 -3.16 -3.09 -2.79 -2.90 -2.84
5.424 -6.58 -6.51 -6.40 -6.26 -6.13 -6.30 -5.55 -6.79 -4.97 -5.14 -4.84 -4.43 -4.63 -4.57
5.433 -2.95 -2.83 -2.54 -2.15 -1.92 -1.85 -0.63 -2.35 -3.65 -3.55 -3.15 -2.78 -2.66 -2.50
5.441 0.31 0.37 0.50 0.90 0.95 1.18 2.43 -0.29 -0.07 0.10 0.38 0.59 0.86 0.93
5.449 5.07 5.06 4.72 4.77 4.49 4.71 5.40 1.00 0.14 -0.04 -0.06 -0.09 0.04 -0.10
5.458 6.38 6.32 5.88 5.60 5.36 5.58 5.95 1.19 0.11 -0.16 -0.42 -0.59 -0.53 -0.65
5.466 2.86 2.77 2.65 2.34 2.41 2.79 3.26 0.73 1.23 1.18 0.89 0.76 0.86 0.86
5.474 1.57 1.50 1.65 1.52 1.83 2.38 3.09 4.06 1.85 1.95 1.73 1.69 1.84 1.99
5.483 2.51 2.48 2.73 2.71 3.07 3.58 4.48 7.74 4.60 4.83 4.60 4.56 4.66 4.81
5.491 3.93 3.91 3.97 3.90 4.06 4.26 4.73 7.97 7.13 7.34 7.09 6.90 6.73 6.66
5.499 3.89 3.87 3.81 3.70 3.72 3.66 3.35 5.76 5.00 5.14 4.91 4.65 4.33 4.12
5.508 0.71 0.73 0.89 0.84 0.87 0.83 -0.09 1.90 1.62 1.73 1.61 1.43 1.26 1.11
5.516 -3.87 -3.88 -3.65 -3.70 -3.88 -3.92 -5.82 -4.10 -1.14 -1.20 -1.16 -1.23 -1.30 -1.35
5.524 -7.35 -7.41 -7.40 -7.42 -7.85 -7.97 -10.96 -9.29 -6.10 -6.39 -6.11 -6.00 -6.12 -6.02
5.533 -4.34 -4.26 -4.39 -4.25 -4.56 -4.60 -8.62 -6.60 -7.69 -8.05 -7.38 -7.03 -7.12 -6.93
5.541 2.52 2.87 2.86 3.24 3.27 3.50 -1.93 0.75 -2.26 -2.63 -1.42 -0.93 -1.07 -1.00
5.549 2.83 3.35 3.53 4.07 4.29 4.65 -0.57 2.07 1.15 0.74 1.95 2.37 1.99 1.78
5.558 -1.60 -1.26 -1.17 -0.77 -0.64 -0.57 -2.18 -1.35 -1.59 -1.91 -1.50 -1.34 -1.64 -1.89
5.566 -2.73 -2.71 -2.84 -2.83 -2.85 -3.28 0.04 -1.76 -3.61 -3.52 -4.02 -4.15 -3.89 -3.85
5.574 -0.51 -0.63 -0.71 -0.89 -0.95 -1.61 4.40 1.25 0.26 0.67 -0.28 -0.58 0.01 0.18
5.583 1.14 0.90 1.04 0.91 0.79 0.35 5.74 2.99 4.07 4.51 3.69 3.42 3.82 3.92
5.591 0.65 0.14 0.27 0.01 -0.37 -0.52 2.99 0.85 2.49 2.87 2.38 2.24 2.36 2.44
5.600 0.39 -0.34 -0.42 -0.88 -1.34 -1.39 0.73 -1.24 0.54 0.77 0.51 0.40 0.44 0.49
5.608 1.44 0.89 0.75 0.45 0.40 0.56 1.64 0.21 0.75 0.76 0.71 0.66 0.74 0.78
5.616 1.24 1.08 0.87 0.86 1.11 1.45 1.73 0.87 1.58 1.45 1.36 1.39 1.41 1.49
5.625 0.39 0.44 0.02 0.08 0.20 0.60 0.27 -0.31 0.68 0.64 0.39 0.52 0.51 0.70
5.633 1.34 1.52 1.01 1.06 1.07 1.50 0.62 0.46 -0.91 -0.86 -0.97 -0.79 -0.90 -0.75
5.641 2.08 2.47 2.13 2.22 2.42 2.70 1.72 2.04 1.42 1.23 1.28 1.27 0.86 0.67
5.650 0.69 1.18 1.16 1.24 1.72 1.78 1.01 1.64 3.06 2.67 2.80 2.63 2.16 1.85
5.658 -1.09 -0.69 -0.51 -0.57 -0.23 -0.35 -1.09 -0.46 0.61 0.33 0.61 0.39 0.22 -0.06
5.666 -1.73 -1.40 -0.94 -1.03 -0.80 -0.94 -1.45 -0.72 -1.40 -1.38 -0.99 -1.20 -1.07 -1.33
5.675 -1.19 -0.81 -0.09 -0.05 0.32 0.24 0.06 0.99 -0.76 -0.48 -0.14 -0.25 -0.13 -0.26
5.683 -0.79 -0.54 -0.08 -0.16 -0.01 -0.44 -0.71 -0.27 1.71 2.00 1.94 1.76 1.61 1.47
5.691 -1.65 -1.61 -1.50 -1.73 -1.92 -2.71 -2.91 -2.91 0.30 0.60 0.17 0.01 0.10 0.15
5.700 -2.34 -2.31 -2.22 -2.34 -2.63 -3.24 -3.25 -3.04 -4.50 -4.11 -4.42 -4.33 -3.66 -3.25
5.708 -2.50 -2.44 -2.34 -2.23 -2.49 -2.68 -2.83 -2.39 -5.34 -5.14 -5.16 -4.93 -4.27 -3.83
5.716 -3.37 -3.27 -3.25 -2.89 -3.03 -2.75 -3.25 -2.69 -4.73 -4.83 -4.58 -4.21 -3.85 -3.49
5.725 -2.19 -2.18 -2.40 -2.01 -2.32 -1.88 -2.70 -2.20 -4.25 -4.55 -4.15 -3.72 -3.52 -3.32
5.733 3.14 2.99 2.63 2.89 2.40 2.77 2.09 2.45 0.46 0.16 0.43 0.64 0.67 0.57
5.741 7.37 7.18 6.92 7.07 6.69 6.95 6.57 6.66 6.11 5.99 5.98 5.92 5.60 5.29
5.750 4.61 4.33 4.04 3.91 3.51 3.45 2.87 2.27 5.35 5.16 4.76 4.52 3.77 3.39
5.758 -1.77 -2.25 -2.48 -2.79 -3.09 -3.26 -3.82 -4.67 -1.35 -1.69 -2.19 -2.39 -3.16 -3.25
5.766 -3.33 -3.98 -3.93 -4.13 -3.98 -3.84 -3.73 -4.08 -4.53 -4.72 -4.81 -4.85 -5.27 -5.04
5.775 0.42 -0.22 0.03 0.01 0.68 1.11 2.06 2.28 0.21 0.29 0.52 0.53 0.46 0.58
5.783 3.21 2.67 3.05 3.01 3.90 4.37 5.71 6.06 5.25 5.63 5.84 5.85 6.15 6.11
5.791 2.58 1.98 2.24 2.06 2.57 2.80 3.71 3.76 4.82 5.30 5.38 5.38 5.86 5.74
5.800 1.01 0.35 0.46 0.33 0.49 0.52 0.98 0.89 2.66 2.97 2.98 2.94 3.23 3.10
5.808 1.53 0.96 0.96 0.91 1.03 0.98 1.26 1.17 2.64 2.77 2.85 2.79 2.83 2.79
5.816 2.77 2.35 2.14 2.01 2.03 1.86 1.83 1.64 2.90 2.76 2.90 2.86 2.77 2.76
5.824 0.40 0.29 0.04 0.02 -0.01 -0.18 -0.48 -0.62 1.44 1.16 1.35 1.44 1.36 1.36
5.833 -4.35 -4.02 -4.24 -4.07 -4.26 -4.48 -5.06 -5.24 -1.38 -1.50 -1.15 -0.83 -0.78 -0.75
5.841 -5.97 -5.13 -5.52 -5.18 -5.67 -5.86 -6.68 -6.86 -4.73 -4.98 -4.53 -4.08 -4.14 -4.13
5.849 -3.80 -2.36 -2.82 -2.23 -2.63 -2.59 -3.14 -2.85 -7.51 -8.17 -8.04 -7.72 -8.22 -8.23
5.858 -1.27 0.60 0.37 1.00 0.96 1.02 1.13 1.87 -7.64 -8.23 -8.64 -8.66 -9.29 -9.22
5.866 0.09 1.93 2.00 2.18 2.27 1.90 2.48 2.93 -2.52 -2.43 -3.08 -3.48 -3.56 -3.44
5.874 0.41 1.74 1.87 1.38 1.14 0.31 0.70 0.24 2.65 3.26 2.71 2.09 2.61 2.63
5.883 -0.56 0.28 0.37 -0.29 -0.68 -1.31 -1.17 -1.91 0.80 1.21 0.85 0.40 0.99 1.01
5.891 -1.43 -0.69 -0.48 -0.75 -0.67 -0.52 -0.14 -0.30 -1.43 -1.31 -1.52 -1.70 -1.29 -1.19
5.899 -0.26 0.27 0.60 0.51 0.83 1.40 1.80 1.82 2.17 2.34 2.28 2.17 2.52 2.45
5.908 0.91 0.70 1.06 0.88 0.90 1.33 1.40 1.10 4.60 4.77 4.96 4.97 5.24 5.02
5.916 0.40 -0.75 -0.21 -0.33 -0.45 -0.16 -0.23 -0.51 1.18 1.20 1.56 1.80 1.87 1.78
5.924 0.62 -1.12 -0.43 -0.43 -0.29 0.03 -0.00 0.07 -2.07 -2.16 -1.89 -1.62 -1.80 -1.74
5.933 2.12 0.43 0.85 0.93 1.21 1.52 1.35 1.63 0.44 0.25 0.46 0.55 0.22 0.26
5.941 2.98 1.66 1.67 1.89 2.07 2.23 1.91 2.17 4.68 4.57 4.85 4.85 4.56 4.59
5.949 2.70 1.63 1.40 1.73 1.87 1.97 1.74 2.04 4.55 4.63 4.92 5.04 4.75 4.82
5.958 1.93 0.99 0.46 0.62 0.61 0.62 0.28 0.39 1.03 1.04 1.04 1.28 0.81 0.77
5.966 1.41 0.61 -0.09 -0.14 -0.37 -0.50 -0.96 -1.15 -1.39 -1.45 -1.84 -1.61 -2.18 -2.40
5.974 1.59 1.04 0.63 0.64 0.54 0.54 0.46 0.54 -0.25 -0.06 -0.29 -0.18 -0.31 -0.46
5.982 0.84 0.61 0.45 0.47 0.57 0.54 0.77 1.03 1.07 1.49 1.64 1.63 2.23 2.38
5.991 -2.10 -2.23 -2.45 -2.69 -2.65 -3.10 -2.82 -3.06 -2.21 -1.88 -1.92 -2.12 -1.31 -1.02
5.999 -3.85 -3.88 -4.14 -4.56 -4.61 -5.16 -4.85 -5.39 -5.71 -5.66 -6.06 -6.40 -5.95 -5.79
6.007 -3.66 -3.18 -3.36 -3.61 -3.64 -3.88 -3.78 -4.00 -4.63 -4.86 -5.09 -5.35 -5.22 -5.19
6.016 -4.81 -3.68 -3.84 -3.86 -3.87 -3.81 -4.25 -3.99 -3.99 -4.52 -4.37 -4.41 -4.51 -4.55
6.024 -4.65 -3.19 -3.31 -3.17 -3.24 -3.02 -3.71 -3.26 -4.65 -5.37 -5.05 -4.89 -5.13 -5.12
6.033 0.12 1.44 1.73 2.06 2.18 2.62 2.48 3.07 -0.91 -1.33 -1.03 -0.83 -0.99 -0.94
6.041 6.10 7.08 7.80 8.22 8.54 9.11 9.62 10.26 6.11 6.21 6.34 6.43 6.34 6.23
6.049 7.69 8.34 9.03 9.27 9.42 9.66 10.19 10.42 10.63 11.02 10.92 10.94 10.86 10.68
6.058 2.69 2.98 3.46 3.44 3.38 3.25 3.67 3.42 8.06 8.50 8.28 8.29 8.21 8.08
6.066 -2.18 -2.23 -1.88 -2.05 -2.14 -2.32 -1.94 -2.39 0.66 0.96 0.73 0.67 0.56 0.49
6.074 -1.94 -2.14 -1.92 -2.13 -2.27 -2.53 -2.31 -2.88 -3.02 -2.92 -3.18 -3.35 -3.29 -3.30
6.083 -2.74 -3.01 -3.07 -3.33 -3.60 -4.07 -3.95 -4.61 -3.35 -3.30 -3.63 -3.95 -3.70 -3.74
6.091 -4.73 -5.15 -5.60 -5.95 -6.44 -7.02 -7.08 -7.81 -5.05 -5.06 -5.41 -5.86 -5.64 -5.81
6.099 -1.66 -2.27 -2.85 -3.19 -3.71 -4.32 -4.59 -5.31 -6.27 -6.31 -6.47 -6.87 -6.71 -6.74
6.108 4.47 3.85 3.60 3.41 3.28 2.78 2.61 2.30 -3.15 -3.11 -2.99 -3.01 -2.91 -2.55
6.116 7.67 7.27 7.39 7.42 7.78 7.56 7.66 8.05 5.01 5.05 5.43 5.93 5.87 6.38
6.125 3.74 3.58 3.68 3.93 4.43 4.52 4.62 5.49 9.28 9.17 9.72 10.33 10.09 10.31
6.133 -2.32 -2.35 -2.58 -2.06 -1.76 -1.41 -1.63 -0.68 4.94 4.59 5.11 5.44 4.98 4.76
6.141 -3.95 -3.95 -4.56 -3.76 -3.76 -3.14 -3.82 -3.04 0.16 -0.48 0.21 0.47 -0.12 -0.52
6.150 -5.52 -5.48 -6.28 -5.48 -5.65 -4.74 -5.65 -5.24 -4.72 -5.43 -4.50 -4.01 -4.53 -4.79
6.158 -4.99 -4.88 -5.36 -4.97 -5.04 -3.93 -4.52 -4.47 -9.64 -9.96 -9.53 -9.10 -9.41 -9.49
6.166 1.47 1.66 1.80 1.65 1.83 2.81 2.76 2.64 -5.82 -5.47 -5.98 -6.08 -5.96 -5.92
6.175 6.06 6.23 6.87 6.39 6.73 7.28 7.65 7.54 4.56 5.37 4.37 3.93 4.47 4.55
6.183 4.45 4.43 5.21 4.66 5.01 5.07 5.60 5.55 9.35 10.12 9.39 9.07 9.69 9.74
6.191 -1.93 -2.09 -1.54 -2.01 -1.84 -2.24 -1.81 -2.02 3.41 3.87 3.60 3.47 3.94 4.05
6.200 -6.21 -6.30 -6.08 -6.38 -6.46 -7.05 -6.77 -7.09 -4.86 -4.67 -4.83 -5.04 -4.84 -4.64
6.208 -2.13 -2.12 -2.16 -2.28 -2.52 -3.04 -2.97 -3.25 -5.14 -5.14 -5.29 -5.64 -5.63 -5.54
6.216 2.38 2.34 2.11 2.00 1.69 1.22 0.99 0.53 -0.81 -0.92 -1.09 -1.31 -1.29 -1.31
6.224 -0.09 -0.24 -0.48 -0.69 -0.91 -1.38 -1.78 -2.37 -0.96 -1.18 -1.44 -1.40 -1.46 -1.46
6.233 -3.41 -3.43 -3.48 -3.65 -3.76 -4.15 -4.39 -4.78 -4.13 -4.52 -4.58 -4.52 -4.75 -4.78
6.241 0.70 0.95 1.13 1.22 1.20 0.94 1.24 1.28 -1.33 -1.74 -1.42 -1.53 -1.69 -1.83
6.249 8.67 9.05 9.28 9.68 9.77 9.59 10.44 10.90 7.54 7.30 7.87 7.79 7.87 7.71
6.258 9.44 9.77 9.88 10.37 10.47 10.29 11.15 11.72 12.04 11.99 12.55 12.66 12.97 12.83
6.266 1.73 1.85 1.93 2.15 2.24 1.92 2.42 2.86 6.19 6.22 6.45 6.60 6.77 6.55
6.274 -4.05 -4.21 -4.18 -4.32 -4.32 -4.80 -4.78 -4.65 -2.39 -2.39 -2.46 -2.39 -2.62 -2.85
6.283 -2.88 -3.21 -3.27 -3.52 -3.72 -4.04 -4.37 -4.55 -4.06 -4.02 -4.16 -4.16 -4.38 -4.34
6.291 -2.24 -2.52 -2.44 -2.74 -2.93 -2.84 -3.09 -3.26 -3.25 -2.99 -3.33 -3.40 -3.34 -3.02
6.299 -4.30 -4.40 -4.19 -4.57 -4.63 -4.30 -4.45 -4.49 -4.78 -4.36 -4.87 -5.01 -4.80 -4.51
6.308 -4.94 -4.99 -4.97 -5.18 -5.23 -4.80 -5.18 -5.23 -4.75 -4.52 -4.87 -4.96 -4.89 -4.71
6.316 -5.32 -5.42 -5.66 -5.51 -5.54 -4.85 -5.52 -5.49 -4.53 -4.62 -4.62 -4.48 -4.72 -4.52
6.324 -3.09 -3.13 -3.46 -3.08 -2.98 -2.00 -2.72 -2.51 -4.27 -4.44 -4.14 -3.87 -4.11 -3.96
6.332 3.24 3.30 2.98 3.35 3.65 4.48 4.06 4.27 0.05 -0.04 0.18 0.34 0.22 0.15
6.341 8.76 8.94 8.55 8.88 9.29 9.74 9.76 9.80 6.92 6.89 6.99 7.05 6.89 6.71
6.349 8.76 8.94 8.40 8.65 8.79 8.93 9.13 8.85 10.42 10.40 10.43 10.44 10.28 10.21
6.357 2.40 2.33 1.73 1.67 1.33 1.07 1.09 0.47 5.13 5.06 4.84 4.81 4.68 4.75
6.366 -2.56 -2.73 -3.02 -3.26 -3.58 -4.19 -4.11 -4.52 -2.16 -2.07 -2.23 -2.24 -2.07 -1.89
6.374 -3.30 -3.34 -3.02 -3.12 -2.90 -3.48 -2.95 -2.65 -2.79 -2.50 -2.38 -2.39 -1.97 -1.84
6.382 -4.61 -4.49 -3.69 -3.66 -3.14 -3.52 -2.70 -1.98 -1.90 -1.70 -1.60 -1.70 -1.54 -1.68
6.391 -4.62 -4.41 -3.67 -3.68 -3.51 -3.77 -3.15 -2.67 -3.57 -3.61 -3.58 -3.68 -3.77 -4.13
6.399 -1.21 -1.16 -0.87 -1.12 -1.66 -2.06 -1.98 -2.05 -5.09 -5.31 -5.29 -5.34 -5.48 -5.91
6.407 4.74 4.66 4.65 4.31 3.39 2.92 2.64 2.30 -1.09 -1.32 -1.24 -1.33 -1.34 -1.68
6.415 7.78 7.73 7.76 7.71 7.04 6.87 6.58 6.37 6.77 6.64 6.85 6.77 7.01 6.92
6.424 2.31 2.22 2.32 2.49 2.28 2.42 2.18 2.01 6.12 6.02 6.19 6.27 6.48 6.62
6.432 -4.24 -4.25 -4.12 -3.96 -3.68 -3.29 -3.43 -3.61 -1.61 -1.71 -1.48 -1.21 -1.12 -0.90
6.440 -5.54 -5.35 -5.14 -4.90 -4.25 -3.50 -3.70 -3.73 -4.28 -4.53 -4.05 -3.68 -3.79 -3.63
6.449 -4.12 -3.87 -3.70 -3.45 -2.86 -2.07 -2.52 -2.53 -2.64 -3.13 -2.78 -2.52 -2.96 -2.80
6.457 -1.73 -1.59 -1.55 -1.51 -1.13 -0.94 -1.28 -1.26 -1.49 -1.80 -1.91 -1.92 -2.37 -2.13
6.465 0.12 0.01 -0.00 -0.18 0.13 -0.43 -0.24 -0.03 -0.95 -0.67 -1.19 -1.40 -1.55 -1.35
6.474 2.47 2.27 2.15 1.91 2.26 1.36 1.92 2.22 0.49 1.12 0.54 0.23 0.40 0.44
6.482 4.77 4.65 4.26 4.11 4.42 3.71 4.11 4.30 3.16 3.58 3.31 3.00 3.32 3.22
6.490 3.18 3.18 2.61 2.56 2.69 2.38 2.41 2.45 3.32 3.34 3.26 3.04 3.23 3.03
6.499 -0.36 -0.19 -0.56 -0.41 -0.37 -0.17 -0.22 -0.16 1.80 1.79 1.72 1.58 1.70 1.51
6.507 -2.56 -2.43 -2.44 -2.16 -2.19 -1.52 -1.60 -1.44 0.36 0.58 0.55 0.60 0.75 0.76
6.516 -1.21 -1.28 -1.18 -1.09 -1.42 -0.61 -0.84 -0.76 -2.09 -1.84 -1.86 -1.68 -1.66 -1.49
6.524 1.94 1.77 1.81 1.64 1.05 1.70 1.40 1.25 -0.68 -0.61 -0.63 -0.55 -0.73 -0.72
6.532 -0.21 -0.36 -0.39 -0.62 -1.28 -0.85 -1.22 -1.59 0.84 0.70 0.71 0.84 0.58 0.51
6.541 -3.30 -3.36 -3.42 -3.55 -4.15 -3.89 -4.19 -4.55 -2.71 -2.91 -2.80 -2.51 -2.56 -2.45
6.549 0.61 0.61 0.51 0.46 -0.08 0.02 -0.10 -0.37 -2.56 -2.79 -2.60 -2.47 -2.44 -2.32
6.557 3.43 3.36 3.35 3.33 2.93 2.86 2.91 2.69 0.74 0.44 0.48 0.33 0.22 0.17
6.566 -0.48 -0.60 -0.38 -0.42 -0.47 -0.70 -0.34 -0.41 0.33 0.15 0.05 -0.19 -0.19 -0.32
6.574 -1.05 -1.20 -0.87 -0.92 -0.74 -1.24 -0.62 -0.56 -0.97 -0.93 -1.02 -1.12 -0.92 -1.04
6.582 4.00 3.93 4.26 4.30 4.62 3.96 4.61 4.86 1.47 1.85 1.74 1.78 2.24 2.20
6.591 3.74 3.80 4.06 4.02 4.53 3.87 4.43 4.66 4.95 5.62 5.36 5.24 5.87 5.91
6.599 -1.50 -1.42 -1.27 -1.52 -0.99 -1.62 -1.28 -1.36 2.30 2.75 2.28 1.96 2.28 2.32
6.607 -2.09 -1.99 -2.00 -2.11 -1.74 -2.25 -2.17 -2.26 -1.05 -0.99 -1.29 -1.51 -1.56 -1.59
6.616 -0.04 0.03 -0.16 0.11 0.25 -0.07 -0.28 -0.17 1.08 0.90 1.05 1.10 0.85 0.73
6.624 -3.46 -3.34 -3.58 -3.12 -2.98 -3.07 -3.43 -3.14 -0.69 -1.01 -0.52 -0.25 -0.65 -0.71
6.632 -8.52 -8.31 -8.52 -8.18 -7.92 -7.85 -8.13 -7.84 -7.39 -7.86 -7.26 -6.99 -7.48 -7.48
6.641 -4.99 -4.87 -5.09 -5.03 -4.82 -4.70 -4.95 -4.86 -8.21 -8.88 -8.42 -8.25 -8.88 -8.92
6.649 3.95 3.89 3.73 3.66 3.79 4.04 3.72 3.80 -1.21 -1.67 -1.29 -1.00 -1.40 -1.28
6.657 8.77 8.69 8.58 8.61 8.67 9.13 8.89 9.14 6.53 6.62 6.99 7.25 7.24 7.52
6.666 7.86 7.98 7.92 8.11 7.99 8.59 8.47 8.68 8.97 9.23 9.38 9.33 9.38 9.47
6.674 1.26 1.38 1.32 1.43 0.94 1.44 1.06 0.80 4.75 4.88 4.84 4.75 4.90 4.77
6.682 -5.66 -5.85 -5.95 -6.11 -6.89 -6.57 -7.24 -8.01 -2.38 -2.39 -2.47 -2.33 -2.17 -2.22
6.691 -5.31 -5.60 -5.49 -5.73 -6.29 -5.89 -6.33 -6.90 -5.79 -5.87 -5.93 -5.77 -5.72 -5.64
6.699 -2.39 -2.44 -2.04 -2.17 -2.20 -1.64 -1.54 -1.40 -4.34 -4.38 -4.47 -4.51 -4.51 -4.55
6.707 -1.49 -1.26 -0.74 -0.82 -0.47 0.11 0.55 1.13 -1.63 -1.59 -1.78 -2.00 -2.03 -2.25
6.716 -0.79 -0.57 -0.21 -0.35 -0.09 0.25 0.62 0.97 0.63 0.85 0.61 0.42 0.54 0.44
6.724 -0.73 -0.67 -0.62 -0.70 -0.77 -0.79 -0.50 -0.51 0.88 1.25 0.98 0.87 1.10 1.27
6.732 -0.12 -0.05 -0.12 -0.02 -0.11 -0.48 -0.01 -0.06 0.13 0.48 0.12 -0.08 0.11 0.41
6.741 2.02 2.01 1.97 1.88 1.85 1.01 1.55 1.34 0.82 1.08 0.51 0.16 0.48 0.64
6.749 3.79 3.62 3.64 3.30 3.35 2.36 2.88 2.61 2.06 2.20 1.53 1.18 1.53 1.51
6.757 4.16 3.98 3.93 3.75 3.91 3.33 3.65 3.48 2.22 2.18 1.77 1.59 1.70 1.61
6.766 3.22 3.03 2.65 2.74 2.92 2.79 2.57 2.42 0.96 0.60 0.59 0.62 0.45 0.29
6.774 2.60 2.45 2.05 2.38 2.77 3.08 2.70 2.72 2.11 1.60 1.97 2.13 1.91 1.74
6.782 1.83 1.77 1.64 1.91 2.32 2.84 2.61 2.74 5.14 4.83 5.40 5.59 5.55 5.37
6.791 0.41 0.47 0.44 0.54 0.72 1.08 0.96 1.14 3.32 3.33 3.83 4.05 4.11 3.88
6.799 0.34 0.65 0.66 0.78 0.98 1.12 1.09 1.38 0.64 0.89 1.23 1.45 1.50 1.38
6.808 -2.12 -1.93 -2.20 -2.38 -2.60 -2.97 -3.40 -3.70 -1.41 -1.19 -1.19 -1.01 -1.14 -1.10
6.816 -7.08 -7.28 -7.80 -8.31 -9.22 -10.04 -10.83 -11.86 -8.02 -7.92 -8.15 -7.93 -8.24 -8.06
6.824 -6.81 -7.00 -7.05 -7.29 -7.97 -8.65 -8.92 -9.59 -10.59 -10.41 -10.47 -10.25 -10.39 -10.08
6.833 -2.90 -2.82 -2.11 -1.90 -1.72 -2.03 -1.48 -1.09 -5.08 -4.82 -4.77 -4.75 -4.75 -4.45
6.841 0.23 0.46 1.41 1.84 2.46 2.35 3.15 4.24 0.78 0.95 1.02 0.75 0.75 0.91
6.849 3.27 3.34 3.80 4.04 4.24 3.99 4.36 5.23 4.02 4.07 4.19 3.79 3.94 3.91
6.858 5.42 5.31 5.26 5.28 5.01 4.72 4.83 5.24 4.54 4.57 4.81 4.56 4.88 4.78
6.866 4.76 4.75 4.57 4.71 4.48 4.55 4.79 5.12 5.08 5.05 5.40 5.38 5.56 5.46
6.875 -0.42 -0.50 -0.85 -0.78 -1.00 -0.64 -0.70 -0.55 3.01 2.65 2.84 2.97 2.68 2.51
6.883 -4.83 -5.01 -5.47 -5.49 -5.66 -5.00 -5.43 -5.47 -3.35 -3.91 -3.71 -3.37 -3.82 -4.01
6.891 -3.41 -3.54 -4.05 -3.93 -3.98 -3.01 -3.59 -3.76 -4.65 -5.24 -4.63 -4.16 -4.48 -4.54
6.900 -2.04 -2.22 -2.92 -2.92 -3.14 -2.24 -3.08 -3.53 -3.33 -4.05 -3.49 -3.17 -3.58 -3.48
6.908 -2.61 -2.75 -3.29 -3.48 -3.65 -3.04 -3.72 -4.12 -4.06 -4.67 -4.76 -4.72 -5.13 -5.00
6.916 -2.49 -2.34 -2.22 -2.43 -2.13 -1.70 -1.60 -1.68 -1.70 -1.69 -2.35 -2.55 -2.59 -2.57
6.925 -0.79 -0.34 0.39 0.28 0.91 1.35 2.07 2.14 1.66 2.40 1.64 1.37 1.73 1.74
6.933 3.38 3.87 4.66 4.71 5.20 5.60 6.26 6.08 5.15 5.96 5.35 5.02 5.51 5.56
6.941 5.58 5.75 6.24 6.29 6.37 6.39 6.60 6.09 7.23 7.62 6.96 6.52 6.88 6.91
6.950 4.08 4.07 4.43 4.41 4.34 4.01 4.14 3.73 3.85 4.15 3.66 3.37 3.78 3.79
6.958 1.05 1.04 1.39 1.30 1.32 0.84 1.06 0.86 0.10 0.57 0.44 0.50 0.97 0.95
6.966 -3.00 -3.17 -2.93 -3.23 -3.28 -3.95 -3.88 -4.16 -3.42 -3.09 -3.34 -3.13 -3.01 -2.99
6.975 -2.49 -2.75 -2.49 -2.81 -2.89 -3.64 -3.61 -3.75 -4.89 -4.91 -5.38 -5.34 -5.56 -5.55
6.983 1.33 1.17 1.52 1.33 1.47 0.79 1.04 1.34 0.03 -0.03 -0.25 -0.43 -0.59 -0.67
6.991 1.76 1.68 1.82 1.60 1.81 1.22 1.42 1.85 2.52 2.70 2.96 2.90 3.06 3.03
6.999 2.62 2.45 2.11 1.78 1.61 1.12 0.87 0.85 1.44 1.58 2.06 2.21 2.56 2.59
7.008 3.62 3.37 2.64 2.43 1.99 1.62 1.19 0.91 1.85 1.62 1.88 1.93 2.03 1.97
7.016 2.42 2.43 1.66 1.92 1.79 1.66 1.62 1.81 1.36 0.98 1.21 1.21 1.07 1.02
7.024 3.26 3.49 2.81 3.47 3.68 3.60 3.86 4.50 2.35 2.10 2.71 2.88 2.81 2.90
7.033 3.14 3.31 2.70 3.48 3.64 3.47 3.55 4.14 4.09 3.88 4.75 5.02 4.82 4.96
7.041 -2.03 -1.88 -2.37 -1.50 -1.41 -1.42 -1.71 -1.30 2.10 1.61 2.54 2.78 2.13 2.00
7.049 -8.34 -8.20 -8.64 -7.95 -7.96 -7.83 -8.46 -8.30 -4.52 -5.27 -4.49 -4.30 -5.28 -5.63
7.058 -8.23 -8.22 -8.47 -8.34 -8.59 -8.46 -9.06 -9.11 -10.56 -11.03 -10.71 -10.61 -11.19 -11.33
7.066 -1.21 -1.27 -0.94 -1.23 -1.50 -1.21 -1.19 -1.26 -6.26 -6.13 -6.34 -6.49 -6.20 -6.12
7.074 1.66 1.67 2.56 2.18 2.19 2.82 3.49 3.43 2.13 2.65 2.02 1.68 2.27 2.32
7.083 -1.43 -1.37 -0.47 -0.86 -0.69 0.19 0.81 0.64 3.22 3.69 2.91 2.66 2.93 2.90
7.091 -2.20 -2.23 -1.73 -2.26 -2.32 -1.28 -1.24 -1.54 0.10 0.34 -0.43 -0.44 -0.49 -0.43
7.099 -2.05 -2.10 -1.85 -2.33 -2.49 -1.32 -1.48 -1.58 -1.27 -1.06 -1.58 -1.47 -1.42 -1.22
7.108 -2.63 -2.64 -2.48 -2.64 -2.65 -1.72 -1.80 -1.65 -0.42 -0.15 -0.18 -0.11 0.20 0.36
7.116 0.65 0.62 0.59 0.57 0.50 0.56 0.33 0.24 -0.72 -0.58 -0.41 -0.34 -0.08 0.10
7.124 3.60 3.64 3.49 3.47 3.24 2.44 2.08 1.69 -0.33 -0.36 -0.40 -0.23 -0.24 0.04
7.133 1.48 1.53 1.30 1.18 0.84 -0.26 -0.67 -1.25 0.05 -0.19 -0.42 -0.30 -0.58 -0.58
7.141 0.67 0.50 0.21 -0.04 -0.38 -1.28 -1.61 -2.22 -3.37 -3.85 -4.08 -4.02 -4.30 -4.54
7.149 2.55 2.31 2.18 2.13 2.16 1.77 1.89 1.70 -2.64 -3.06 -3.10 -2.99 -2.97 -3.01
7.158 3.56 3.54 3.64 3.88 4.34 4.40 4.84 5.07 2.86 2.76 2.94 2.93 3.16 3.24
7.166 3.03 3.18 3.37 3.63 4.22 4.33 4.72 5.04 6.48 6.73 7.01 6.63 6.91 6.85
7.174 -0.15 -0.15 -0.00 0.18 0.64 0.56 0.85 1.09 5.77 6.22 6.43 5.86 6.10 5.96
7.183 -1.15 -1.33 -1.31 -1.15 -0.84 -1.13 -0.77 -0.53 -0.91 -0.46 -0.37 -0.63 -0.39 -0.27
7.191 0.18 0.07 0.12 0.20 0.42 -0.16 0.40 0.73 -3.61 -3.16 -3.22 -3.22 -2.92 -2.68
7.199 -2.03 -2.08 -1.99 -2.15 -2.12 -2.89 -2.47 -2.28 -0.58 -0.29 -0.58 -0.67 -0.55 -0.67
7.208 -3.31 -3.37 -3.42 -3.56 -3.66 -4.12 -4.08 -4.03 0.53 0.49 0.29 0.27 0.07 -0.25
7.216 -2.07 -2.07 -2.29 -2.07 -2.06 -1.90 -2.13 -1.91 1.84 1.59 1.84 2.08 1.69 1.38
7.224 -0.19 -0.12 -0.49 -0.17 -0.23 0.25 -0.21 -0.01 0.74 0.36 0.89 1.24 0.80 0.48
7.233 2.63 2.80 2.58 2.67 2.46 3.05 2.64 2.67 -0.29 -0.65 -0.23 0.09 -0.20 -0.39
7.241 1.66 1.92 2.05 1.96 1.83 2.53 2.40 2.43 1.78 1.57 1.70 1.92 1.83 1.84
7.249 -0.27 -0.03 0.04 -0.17 -0.35 0.15 0.03 -0.07 0.48 0.24 0.10 0.14 0.06 0.12
7.258 1.02 1.18 1.02 0.73 0.36 0.45 0.16 -0.16 -0.46 -0.70 -1.00 -1.06 -1.19 -1.12
7.266 2.74 2.87 2.69 2.51 2.05 1.96 1.70 1.27 0.86 0.88 0.62 0.61 0.62 0.87
7.274 5.34 5.51 5.41 5.45 5.14 5.04 4.99 4.64 2.23 2.52 2.35 2.20 2.43 2.81
7.283 4.11 4.24 4.33 4.50 4.59 4.53 4.77 4.81 3.37 3.74 3.48 3.18 3.50 3.83
7.291 -3.47 -3.43 -3.22 -3.02 -2.64 -2.62 -2.24 -1.88 -0.21 0.07 -0.26 -0.45 -0.14 0.01
7.299 -7.63 -7.71 -7.44 -7.28 -6.91 -6.79 -6.51 -6.22 -4.82 -4.64 -4.90 -5.02 -4.83 -4.97
7.308 -5.00 -5.17 -4.92 -4.94 -4.75 -4.66 -4.68 -4.68 -5.56 -5.46 -5.60 -5.67 -5.56 -5.81
7.316 -1.33 -1.60 -1.55 -1.81 -1.87 -1.98 -2.40 -2.70 -4.34 -4.53 -4.53 -4.44 -4.50 -4.59
7.325 -0.94 -1.26 -1.27 -1.56 -1.61 -1.78 -2.29 -2.50 -3.23 -3.70 -3.49 -3.24 -3.48 -3.38
7.333 -2.64 -2.84 -2.71 -2.68 -2.56 -2.58 -2.78 -2.71 -3.36 -3.76 -3.31 -2.97 -3.18 -3.01
7.341 -1.67 -1.76 -1.70 -1.27 -1.18 -1.00 -1.07 -1.02 -1.63 -1.83 -1.22 -0.91 -1.14 -1.12
7.350 1.27 1.15 0.95 1.49 1.47 1.79 1.68 1.68 1.54 1.50 2.23 2.60 2.37 2.36
7.358 2.95 2.82 2.45 2.65 2.62 2.71 2.75 2.78 2.94 2.97 3.49 3.69 3.62 3.66
7.366 4.03 3.89 3.58 3.29 3.21 2.81 3.18 3.15 4.80 4.90 4.84 4.50 4.48 4.42
7.375 3.20 3.08 3.05 2.53 2.41 1.73 2.28 2.20 5.63 5.98 5.55 4.98 5.14 5.03
7.383 0.04 -0.02 0.14 -0.31 -0.46 -1.04 -0.71 -0.77 1.63 1.90 1.51 1.00 1.20 1.05
7.391 -0.72 -0.64 -0.44 -0.69 -0.78 -1.06 -0.98 -0.84 -2.53 -2.56 -2.73 -3.17 -3.11 -3.29
7.399 0.55 0.88 1.17 1.25 1.31 1.37 1.55 1.99 -0.72 -0.69 -0.73 -0.95 -0.91 -1.02
7.408 -1.24 -0.79 -0.47 -0.10 -0.01 0.38 0.65 1.21 2.17 2.37 2.29 2.39 2.40 2.35
7.416 -3.62 -3.35 -3.28 -2.89 -2.80 -2.17 -2.04 -1.63 -0.22 0.03 -0.00 0.38 0.45 0.49
7.424 -0.39 -0.30 -0.67 -0.46 -0.38 0.19 -0.00 -0.08 -1.97 -1.82 -1.87 -1.51 -1.43 -1.42
7.433 4.96 4.93 4.33 4.31 4.25 4.51 3.99 3.31 1.36 1.33 1.14 1.38 1.33 1.28
7.441 2.22 2.07 1.68 1.54 1.48 1.47 0.98 0.25 1.69 1.56 1.37 1.78 1.75 1.93
7.449 -5.47 -5.60 -5.56 -5.61 -5.49 -5.56 -5.69 -5.93 -3.95 -4.13 -4.19 -3.71 -3.68 -3.31
7.458 -3.65 -3.74 -3.47 -3.45 -3.33 -3.46 -3.39 -3.29 -5.25 -5.35 -5.17 -5.04 -5.04 -4.81
7.466 5.89 5.78 5.96 5.77 5.53 5.13 5.05 4.85 1.36 1.15 1.23 0.97 0.75 0.59
7.474 7.83 7.76 7.87 7.48 7.03 6.49 6.31 5.82 6.12 5.64 5.36 5.04 4.59 4.31
7.482 0.36 0.42 0.72 0.50 0.38 0.12 0.27 0.20 3.88 3.60 3.33 3.19 2.99 3.03
7.491 -4.54 -4.40 -3.95 -4.00 -3.75 -3.81 -3.30 -2.91 0.07 0.28 0.01 -0.22 0.04 0.21
7.499 -2.53 -2.41 -2.12 -2.20 -2.00 -2.06 -1.57 -1.24 -1.07 -0.62 -0.99 -1.44 -0.95 -0.98
7.507 -0.70 -0.59 -0.56 -0.51 -0.35 -0.19 0.06 0.34 -1.38 -1.01 -1.03 -1.33 -0.89 -0.98
7.516 -1.66 -1.48 -1.61 -1.26 -0.99 -0.43 -0.47 -0.09 -1.34 -1.16 -0.64 -0.67 -0.47 -0.54
7.524 -2.12 -1.99 -2.32 -1.90 -1.62 -0.91 -1.23 -0.93 -1.12 -1.21 -0.58 -0.57 -0.57 -0.81
7.532 -0.97 -1.01 -1.55 -1.27 -1.08 -0.52 -0.97 -0.85 -1.85 -2.18 -1.87 -1.89 -1.99 -2.31
7.541 1.64 1.56 1.08 1.25 1.38 1.81 1.48 1.58 -0.07 -0.25 -0.15 -0.03 -0.08 -0.20
7.549 3.08 2.96 2.77 2.81 2.83 3.07 2.84 2.90 3.40 3.44 3.44 3.70 3.62 3.70
7.558 0.62 0.41 0.36 0.13 -0.17 -0.58 -0.87 -1.13 2.35 2.35 2.13 2.21 2.04 2.09
7.566 -2.51 -2.74 -2.81 -3.18 -3.75 -4.84 -5.18 -5.75 -3.32 -3.26 -3.45 -3.57 -3.57 -3.48
7.574 -2.67 -2.84 -2.77 -2.98 -3.37 -4.53 -4.59 -4.99 -7.48 -7.24 -7.14 -7.20 -6.81 -6.41
7.583 -1.77 -1.77 -1.41 -1.42 -1.42 -2.21 -1.76 -1.76 -5.29 -4.93 -4.84 -4.72 -4.22 -3.60
7.591 -1.77 -1.62 -1.01 -0.97 -0.77 -1.12 -0.34 -0.14 -0.47 -0.22 -0.38 -0.28 -0.21 0.19
7.599 -1.45 -1.30 -0.62 -0.53 -0.36 -0.27 0.50 0.72 1.92 1.92 1.64 1.55 1.15 1.11
7.608 0.26 0.27 0.87 0.97 0.93 1.35 1.83 1.91 2.37 2.20 2.01 1.92 1.43 1.14
7.616 3.59 3.43 3.72 3.63 3.46 3.92 3.92 3.77 2.60 2.29 2.23 2.42 1.96 1.66
7.624 6.33 6.10 5.87 5.59 5.43 5.69 5.35 5.13 4.45 4.14 4.24 4.62 4.14 3.98
7.633 6.21 6.02 5.41 5.30 5.17 5.34 4.95 4.89 6.64 6.38 6.67 6.91 6.48 6.34
7.641 2.40 2.26 1.56 1.90 1.81 2.20 1.80 1.95 5.02 4.60 5.19 5.30 4.88 4.54
7.649 -3.17 -3.28 -3.95 -3.45 -3.51 -2.95 -3.37 -3.16 -1.79 -2.24 -1.40 -1.09 -1.44 -1.78
7.658 -2.33 -2.24 -2.76 -2.55 -2.46 -1.92 -2.16 -2.09 -6.13 -6.22 -5.60 -5.22 -5.12 -5.12
7.666 2.59 3.00 2.85 2.81 3.19 3.71 3.78 3.83 -0.28 0.11 0.00 0.01 0.76 1.07
7.674 0.70 1.28 1.49 1.42 1.96 2.28 2.51 2.63 5.50 6.13 5.32 4.91 5.84 6.05
7.683 -5.24 -4.75 -4.49 -4.57 -4.16 -4.21 -4.03 -4.01 0.96 1.46 0.52 -0.02 0.48 0.36
7.691 -7.64 -7.41 -7.28 -7.45 -7.37 -7.71 -7.65 -7.79 -7.00 -6.72 -7.35 -7.77 -7.63 -7.74
7.699 -2.61 -2.65 -2.59 -2.91 -3.17 -3.68 -3.79 -4.04 -7.66 -7.62 -7.90 -8.24 -8.15 -8.01
7.708 4.17 3.94 3.92 3.56 3.10 2.56 2.22 1.79 -0.43 -0.72 -0.79 -1.13 -1.12 -0.98
7.716 2.05 1.79 1.81 1.58 1.20 0.78 0.40 -0.05 2.06 1.61 1.64 1.47 1.39 1.51
7.724 -2.84 -2.96 -2.71 -2.67 -2.65 -2.78 -2.89 -2.90 -2.28 -2.62 -2.44 -2.36 -2.48 -2.23
7.733 -3.27 -3.36 -2.92 -2.68 -2.24 -2.10 -1.86 -1.23 -2.29 -2.36 -2.02 -1.72 -1.91 -1.75
7.741 -1.39 -1.56 -1.09 -0.82 -0.26 -0.04 0.47 1.39 1.10 1.31 1.72 2.20 2.06 1.92
7.749 2.35 2.09 2.48 2.77 3.09 3.21 3.77 4.43 3.44 3.75 4.14 4.51 4.59 4.24
7.758 4.86 4.49 4.50 4.73 4.47 4.28 4.41 4.31 4.03 4.23 4.41 4.47 4.63 4.35
7.766 5.47 5.15 4.71 4.73 3.94 3.43 3.08 2.40 2.28 2.24 2.16 1.96 1.99 1.94
7.774 3.94 3.92 3.36 3.25 2.48 1.99 1.74 1.15 1.57 1.51 1.32 1.01 0.89 0.98
7.783 -0.48 -0.22 -0.59 -0.67 -1.06 -1.28 -1.20 -1.42 1.34 1.58 1.44 1.19 1.10 1.22
7.791 -2.01 -1.69 -1.74 -1.81 -1.82 -1.85 -1.62 -1.68 -0.34 0.01 -0.23 -0.40 -0.32 -0.20
7.799 -1.23 -0.98 -0.78 -0.95 -0.69 -0.66 -0.43 -0.52 -1.45 -1.32 -1.78 -1.89 -1.77 -1.63
7.808 -2.01 -1.85 -1.71 -1.81 -1.48 -1.33 -1.15 -1.17 -2.23 -2.27 -2.59 -2.52 -2.53 -2.37
7.816 -2.47 -2.42 -2.55 -2.42 -2.13 -1.83 -1.71 -1.63 -2.78 -2.96 -2.88 -2.58 -2.84 -2.69
7.824 -2.28 -2.29 -2.51 -2.32 -2.07 -1.67 -1.67 -1.62 -2.11 -2.46 -2.19 -1.76 -2.20 -2.12
7.833 -1.86 -1.77 -1.73 -1.61 -1.35 -0.84 -0.85 -0.56 -0.96 -1.26 -1.01 -0.67 -0.91 -0.98
7.841 -0.60 -0.42 -0.10 -0.06 0.17 0.69 0.76 1.32 0.74 0.64 0.79 0.87 0.94 0.63
7.850 2.42 2.55 2.81 2.64 2.65 2.90 2.76 2.97 3.33 3.31 3.40 3.29 3.48 3.15
7.858 4.85 4.90 4.90 4.44 4.24 4.02 3.54 3.10 4.15 3.99 4.04 3.86 4.10 3.99
7.866 2.20 2.28 2.13 1.73 1.57 1.13 0.70 0.27 1.19 0.95 0.90 0.71 0.88 0.94
7.875 -1.80 -1.74 -1.77 -1.75 -1.65 -1.85 -1.93 -1.62 -1.33 -1.26 -1.24 -1.28 -1.10 -1.03
7.883 -1.73 -1.98 -1.83 -1.64 -1.51 -1.53 -1.63 -1.05 -0.35 -0.01 0.09 0.14 0.34 0.32
7.891 -1.95 -2.49 -2.42 -2.43 -2.64 -2.83 -3.34 -3.47 -1.34 -1.21 -1.32 -1.43 -1.54 -1.62
7.900 -5.02 -5.43 -5.52 -5.64 -5.94 -6.17 -6.67 -7.30 -7.18 -7.34 -7.65 -7.88 -8.23 -8.26
7.908 -3.21 -3.26 -3.26 -3.15 -3.04 -3.03 -2.83 -3.05 -8.47 -8.55 -8.77 -8.81 -9.01 -8.90
7.916 3.39 3.58 3.78 4.14 4.53 4.68 5.37 5.60 1.19 1.49 1.70 1.97 2.06 2.23
7.925 4.75 4.87 5.05 5.33 5.35 5.30 5.64 5.59 8.93 9.35 9.79 10.03 10.28 10.38
7.933 1.54 1.51 1.54 1.64 1.27 1.04 0.92 0.56 3.79 3.79 3.99 3.95 3.92 3.97
7.941 1.11 0.94 0.88 1.13 0.91 0.89 0.98 0.95 -2.23 -2.62 -2.41 -2.47 -2.91 -2.91
7.950 2.95 2.58 2.40 2.83 2.87 3.05 3.45 3.78 1.64 1.24 1.72 1.93 1.41 1.35
7.958 0.34 -0.02 -0.24 0.08 0.19 0.46 0.83 1.18 6.11 5.87 6.22 6.53 6.25 6.14
7.966 -5.63 -5.57 -5.69 -5.65 -5.52 -5.03 -4.76 -4.43 2.33 2.36 2.34 2.35 2.48 2.41
7.975 -3.88 -3.46 -3.79 -4.06 -4.13 -3.64 -3.63 -3.54 -3.73 -3.48 -3.70 -3.90 -3.34 -3.14
7.983 4.24 4.67 3.92 3.41 2.98 3.14 2.67 2.26 -3.98 -3.69 -3.99 -4.02 -3.26 -2.82
7.991 7.50 7.79 7.08 6.49 6.06 6.05 5.39 4.81 0.44 0.61 0.07 0.02 0.47 0.62
8.000 3.77 4.09 3.98 3.68 3.82 3.96 3.77 3.61 3.90 3.90 3.12 2.70 2.54 2.12
8.008 -2.35 -1.89 -1.48 -1.35 -0.59 -0.40 -0.02 0.24 3.81 3.85 3.26 2.63 2.30 1.70
8.016 -5.68 -5.24 -4.86 -4.68 -3.95 -4.14 -3.77 -3.57 0.06 0.27 -0.03 -0.38 -0.38 -0.57
8.025 -5.03 -4.70 -4.54 -4.51 -4.29 -4.86 -4.71 -4.65 -4.37 -4.09 -4.15 -4.08 -3.81 -3.56
8.033 -2.84 -2.67 -2.54 -2.51 -2.76 -3.43 -3.29 -3.26 -4.83 -4.63 -4.50 -4.35 -4.10 -3.85
8.041 -0.88 -0.94 -0.77 -0.70 -1.14 -1.87 -1.73 -1.72 -3.44 -3.51 -3.42 -3.28 -3.18 -3.03
8.050 0.90 0.67 0.99 1.01 0.68 -0.09 0.10 0.14 -1.44 -1.60 -1.48 -1.20 -1.18 -1.01
8.058 2.52 2.12 2.60 2.38 2.12 1.41 1.57 1.50 1.71 1.62 1.86 2.15 2.06 2.18
8.066 -0.09 -0.69 -0.27 -0.75 -1.14 -1.70 -1.93 -2.29 -0.87 -1.26 -1.05 -0.82 -1.24 -1.30
8.075 -5.82 -6.51 -6.10 -6.58 -6.95 -7.15 -7.73 -8.12 -7.98 -8.68 -8.39 -8.11 -8.66 -8.85
8.083 -3.23 -3.90 -3.19 -3.39 -3.37 -2.87 -3.37 -3.25 -7.59 -8.08 -7.50 -7.24 -7.55 -7.80
8.091 7.98 7.26 8.18 8.43 8.81 10.17 9.76 10.37 4.21 4.01 4.94 5.03 4.75 4.37
8.100 10.49 9.76 10.29 10.86 11.20 12.88 12.27 12.71 14.29 14.18 14.95 14.84 14.34 14.01
8.108 -0.36 -0.71 -0.99 -0.47 -0.26 0.90 0.41 0.41 9.32 9.34 9.35 9.10 8.65 8.71
8.116 -7.39 -7.03 -7.96 -7.80 -7.49 -7.30 -7.16 -7.35 -0.96 -0.51 -1.12 -1.41 -1.22 -0.79
8.124 -2.04 -1.13 -2.30 -2.42 -2.03 -2.53 -1.86 -2.01 -3.53 -2.77 -3.50 -3.74 -2.80 -2.29
8.133 4.29 5.31 4.29 4.29 4.60 4.18 4.88 4.95 0.09 0.61 0.05 -0.02 0.82 1.13
8.141 4.08 4.87 4.25 4.47 4.65 4.63 5.08 5.29 4.29 4.53 4.23 4.28 4.57 4.58
8.149 3.07 3.53 3.25 3.45 3.52 3.52 3.75 3.90 3.85 3.99 3.83 3.85 3.85 3.64
8.158 2.26 2.49 2.33 2.44 2.32 2.07 2.17 2.21 1.24 1.15 1.02 0.95 0.72 0.40
8.166 -1.71 -1.65 -1.72 -1.55 -1.83 -2.27 -2.09 -2.02 -0.32 -0.52 -0.53 -0.60 -0.76 -1.00
8.174 -5.38 -5.50 -5.46 -5.23 -5.61 -6.04 -5.74 -5.60 -3.18 -3.24 -3.08 -3.02 -2.95 -2.94
8.182 -5.53 -5.77 -5.74 -5.77 -6.34 -6.65 -6.71 -6.94 -6.00 -6.08 -5.97 -5.77 -5.94 -5.86
8.191 -2.17 -2.41 -2.43 -2.80 -3.49 -3.61 -4.20 -4.85 -6.71 -6.91 -6.86 -6.61 -7.01 -6.92
8.199 1.09 0.90 0.96 0.64 0.27 0.48 -0.01 -0.41 -3.51 -3.71 -3.46 -3.22 -3.39 -3.24
8.207 0.77 0.56 0.78 0.74 0.82 1.21 1.11 1.20 0.89 0.80 1.26 1.41 1.59 1.72
8.216 -0.68 -0.93 -0.69 -0.67 -0.50 -0.26 -0.28 -0.19 0.36 0.30 0.56 0.65 0.98 1.15
8.224 -3.11 -3.35 -3.17 -3.26 -3.14 -3.22 -3.30 -3.56 -2.66 -2.89 -3.05 -3.06 -3.00 -2.89
8.232 -4.62 -4.73 -4.40 -4.60 -4.34 -4.69 -4.58 -4.90 -3.93 -4.14 -4.47 -4.70 -4.74 -4.83
8.241 -0.82 -0.62 -0.04 -0.31 0.06 -0.43 0.03 0.14 -1.54 -1.37 -1.67 -2.06 -1.77 -1.87
8.249 3.13 3.53 4.13 3.81 4.11 3.68 4.19 4.57 3.44 3.82 3.38 2.96 3.27 3.16
8.257 3.51 3.72 4.01 3.80 4.01 3.94 4.11 4.32 5.11 5.33 5.01 4.69 4.71 4.46
8.266 3.42 3.19 3.17 3.24 3.59 4.06 3.90 4.07 4.22 4.19 4.30 4.19 3.98 3.66
8.274 3.78 3.40 3.21 3.46 3.85 4.73 4.35 4.61 4.11 3.95 4.26 4.28 3.95 3.72
8.282 4.31 4.18 3.71 3.88 3.85 4.61 4.11 4.15 3.81 3.76 3.96 4.11 3.96 4.03
8.291 3.32 3.46 2.84 2.87 2.42 2.70 2.36 2.05 2.95 2.99 3.01 3.21 3.27 3.48
8.299 0.96 1.17 0.78 0.79 0.36 0.27 0.16 -0.19 0.95 0.87 0.83 0.92 0.91 1.00
8.307 -0.88 -0.79 -0.83 -0.86 -1.12 -1.41 -1.51 -1.70 -1.35 -1.45 -1.37 -1.26 -1.26 -1.05
8.316 -3.14 -3.15 -2.90 -2.94 -3.04 -3.44 -3.59 -3.58 -2.77 -2.67 -2.48 -2.29 -2.22 -1.92
8.324 -4.33 -4.28 -3.77 -3.68 -3.60 -3.99 -3.89 -3.57 -2.93 -2.65 -2.51 -2.49 -2.44 -2.37
8.333 -3.09 -3.00 -2.19 -1.96 -1.65 -1.94 -1.25 -0.53 -1.33 -1.04 -1.02 -1.19 -1.11 -1.26
8.341 -2.10 -2.00 -1.26 -0.99 -0.63 -0.91 -0.05 0.68 -0.02 0.19 0.11 0.08 0.14 -0.04
8.349 -1.45 -1.42 -1.38 -1.32 -1.41 -1.93 -1.73 -1.63 -0.52 -0.42 -0.62 -0.39 -0.53 -0.60
8.358 0.78 0.67 0.11 -0.03 -0.44 -1.00 -1.38 -1.66 -2.05 -2.13 -2.48 -2.21 -2.49 -2.43
8.366 1.91 1.71 1.15 1.16 0.97 0.80 0.50 0.38 -2.22 -2.46 -2.63 -2.52 -2.60 -2.49
8.374 -1.17 -1.39 -1.82 -1.62 -1.64 -1.38 -1.48 -1.61 -1.28 -1.48 -1.18 -1.21 -0.97 -0.83
8.383 -4.05 -4.15 -4.58 -4.31 -4.28 -3.74 -3.78 -4.03 -1.91 -2.10 -1.65 -1.75 -1.65 -1.67
8.391 -2.10 -2.13 -2.74 -2.46 -2.51 -1.76 -2.01 -2.30 -2.41 -2.81 -2.43 -2.51 -2.97 -3.20
8.399 2.51 2.30 1.62 1.74 1.54 2.29 1.75 1.43 -1.01 -1.52 -1.05 -0.89 -1.46 -1.57
8.408 5.01 4.82 4.44 4.32 4.15 4.67 4.22 3.83 2.32 2.06 2.40 2.69 2.50 2.56
8.416 2.83 2.91 2.87 2.48 2.40 2.51 2.37 1.84 4.86 4.90 4.56 4.58 4.63 4.70
8.424 0.06 0.38 0.64 0.16 0.30 0.18 0.46 0.14 2.46 2.71 1.81 1.50 1.75 1.84
8.433 -0.95 -0.59 -0.08 -0.39 0.09 0.03 0.61 0.78 -1.18 -0.77 -1.43 -1.82 -1.34 -1.20
8.441 -1.69 -1.55 -1.08 -1.34 -0.95 -1.06 -0.63 -0.37 -1.77 -1.32 -1.33 -1.64 -1.14 -1.00
8.449 1.27 1.30 1.62 1.38 1.44 1.12 1.39 1.54 1.13 1.44 1.78 1.52 1.87 1.80
8.458 4.10 4.16 4.47 4.44 4.32 3.95 4.26 4.46 4.89 4.88 5.10 4.95 5.10 4.75
8.466 0.07 0.14 0.56 0.81 0.80 0.62 1.01 1.46 3.01 2.83 2.79 2.89 2.98 2.65
8.474 -3.31 -3.19 -2.75 -2.33 -2.15 -2.06 -1.77 -1.18 -1.59 -1.68 -1.84 -1.49 -1.45 -1.61
8.482 -1.01 -1.04 -0.98 -0.78 -0.82 -0.82 -1.14 -0.95 -2.12 -2.22 -2.37 -2.03 -2.34 -2.31
8.491 1.46 1.33 1.10 1.09 0.88 0.65 0.01 -0.08 -0.21 -0.29 -0.24 -0.07 -0.51 -0.29
8.499 0.54 0.57 0.50 0.65 0.65 0.49 0.17 0.16 1.15 1.35 1.65 1.64 1.48 1.65
8.507 -2.13 -2.13 -2.14 -1.95 -1.99 -2.05 -2.28 -2.42 -1.04 -0.81 -0.66 -0.74 -0.81 -0.79
8.516 -0.27 -0.43 -0.45 -0.34 -0.47 -0.43 -0.63 -0.76 -2.20 -2.04 -2.08 -2.01 -2.03 -1.91
8.524 4.50 4.34 4.36 4.36 4.32 4.43 4.34 4.41 3.37 3.52 3.64 3.78 3.95 4.19
8.532 2.78 2.61 2.52 2.31 2.18 2.11 1.95 1.92 3.87 3.79 3.83 3.72 3.90 4.02
8.541 -2.54 -2.56 -2.59 -2.95 -3.10 -3.43 -3.40 -3.51 -3.44 -3.59 -3.90 -4.19 -4.03 -4.06
8.549 -4.44 -4.27 -4.15 -4.49 -4.50 -4.84 -4.53 -4.59 -5.34 -5.34 -5.76 -6.04 -5.86 -5.89
8.557 -3.74 -3.57 -3.58 -3.74 -3.67 -3.76 -3.52 -3.53 -2.13 -2.17 -2.41 -2.58 -2.57 -2.61
8.566 -3.26 -3.21 -3.56 -3.50 -3.41 -3.23 -3.26 -3.27 -1.58 -1.86 -1.84 -1.87 -2.14 -2.28
8.574 -4.52 -4.58 -5.03 -4.75 -4.64 -4.25 -4.36 -4.24 -4.65 -5.10 -4.96 -4.79 -5.20 -5.41
8.582 -2.60 -2.61 -2.79 -2.36 -2.14 -1.58 -1.37 -1.14 -3.82 -3.98 -3.74 -3.41 -3.55 -3.66
8.591 3.05 2.96 2.79 2.91 2.96 3.33 3.51 3.24 1.86 1.89 2.10 2.29 2.27 2.16
8.599 5.11 4.77 4.44 4.11 3.94 3.93 3.69 2.98 2.35 2.24 2.15 2.18 1.85 1.76
8.607 4.78 4.56 4.52 4.34 4.43 4.39 4.24 4.04 2.21 2.34 2.36 2.44 2.30 2.40
8.616 4.00 4.05 4.32 4.51 4.73 4.75 4.91 5.17 6.00 6.40 6.75 6.70 7.01 7.15
8.624 1.04 1.16 1.35 1.60 1.56 1.41 1.72 1.87 5.14 5.38 5.64 5.40 5.80 5.87
8.633 -0.33 -0.20 -0.10 -0.03 -0.24 -0.56 -0.20 -0.20 0.82 1.03 1.09 0.98 1.50 1.66
8.641 2.61 2.66 2.96 2.94 2.80 2.57 2.82 2.95 0.34 0.61 0.53 0.60 1.10 1.34
8.649 5.07 5.04 5.59 5.61 5.64 5.46 5.54 5.78 4.53 4.74 4.51 4.46 4.64 4.66
8.658 0.24 0.07 0.33 0.11 -0.15 -0.73 -1.04 -1.34 3.82 3.86 3.56 3.35 3.15 2.92
8.666 -6.28 -6.54 -6.82 -7.33 -7.98 -8.77 -9.42 -10.16 -6.32 -6.63 -6.87 -6.91 -7.41 -7.55
8.674 -4.16 -4.24 -4.52 -4.84 -5.16 -5.33 -5.72 -5.92 -10.38 -10.89 -10.97 -10.71 -11.16 -11.07
8.683 0.32 0.54 0.64 0.84 1.22 1.99 2.08 2.76 -2.20 -2.61 -2.46 -2.11 -2.37 -2.28
8.691 0.64 1.19 1.40 2.11 2.93 4.39 4.62 5.71 6.31 6.12 6.50 6.84 6.46 6.36
8.700 0.17 0.79 0.54 1.22 1.77 3.19 2.91 3.52 6.36 6.25 6.65 6.89 6.39 6.13
8.708 -1.24 -0.91 -1.53 -1.40 -1.45 -0.70 -1.42 -1.53 -0.83 -0.95 -0.82 -0.76 -0.93 -1.06
8.716 -3.08 -2.96 -3.25 -3.53 -3.63 -3.50 -3.81 -4.08 -5.55 -5.36 -5.46 -5.59 -5.08 -4.97
8.724 -3.70 -3.72 -3.65 -4.10 -4.08 -4.48 -4.17 -4.49 -5.72 -5.29 -5.64 -5.99 -5.31 -5.18
8.733 -2.67 -2.70 -2.53 -2.95 -2.86 -3.55 -2.93 -3.17 -3.78 -3.55 -3.99 -4.49 -4.25 -4.22
8.741 -1.08 -1.04 -0.78 -1.00 -0.85 -1.70 -1.12 -1.16 0.26 0.32 0.15 -0.26 -0.19 -0.16
8.749 -1.91 -2.09 -1.92 -2.01 -2.23 -3.28 -3.13 -3.37 -0.96 -1.02 -1.11 -1.28 -1.17 -1.08
8.758 -0.07 -0.49 -0.41 -0.27 -0.67 -1.52 -1.52 -1.71 -3.18 -3.32 -3.53 -3.54 -3.42 -3.45
8.766 5.27 4.89 4.93 5.30 5.06 4.69 4.91 5.06 2.85 2.86 2.79 2.79 3.02 2.83
8.774 5.03 4.65 4.50 4.76 4.56 4.40 4.64 4.75 6.87 6.97 7.25 7.35 7.55 7.39
8.782 1.34 0.94 0.78 0.86 0.85 0.92 1.01 1.02 3.42 3.48 4.04 4.39 4.31 4.32
8.791 1.51 1.12 1.20 1.21 1.48 1.87 1.83 1.91 0.49 0.51 1.02 1.52 1.22 1.35
8.799 3.97 3.67 3.93 3.82 4.16 4.67 4.35 4.37 2.29 2.31 2.61 2.96 2.67 2.90
8.807 3.16 3.09 3.30 3.13 3.27 3.77 3.12 2.89 4.76 4.82 5.02 5.05 4.91 5.15
8.816 -0.43 -0.34 -0.27 -0.38 -0.54 -0.07 -0.69 -1.07 1.16 1.17 1.09 0.92 0.78 0.77
8.824 0.91 1.16 1.22 1.22 1.00 1.45 1.28 1.05 -2.22 -2.29 -2.74 -2.95 -3.27 -3.53
8.832 3.79 4.20 4.28 4.24 4.12 4.44 4.64 4.61 0.98 0.92 0.36 0.18 -0.09 -0.23
8.840 -0.84 -0.37 -0.43 -0.71 -0.80 -0.87 -0.52 -0.52 0.73 0.78 0.28 0.10 0.23 0.35
8.849 -6.66 -6.19 -6.36 -6.67 -6.66 -6.99 -6.56 -6.46 -4.25 -4.04 -4.38 -4.58 -4.16 -3.98
8.857 -7.19 -6.84 -7.03 -7.07 -6.95 -7.12 -6.84 -6.61 -6.36 -6.26 -6.43 -6.53 -6.29 -6.22
8.865 -6.14 -6.02 -6.25 -6.03 -5.89 -5.79 -5.87 -5.66 -5.62 -5.88 -5.89 -5.75 -5.93 -5.90
8.874 -5.76 -5.76 -6.05 -5.65 -5.52 -5.28 -5.53 -5.28 -2.98 -3.28 -2.98 -2.65 -2.88 -2.88
8.882 -3.86 -3.97 -4.23 -3.84 -3.78 -3.65 -3.71 -3.45 -1.95 -2.05 -1.53 -1.31 -1.29 -1.44
8.891 1.78 1.50 1.42 1.66 1.62 1.53 1.62 1.74 -1.34 -1.41 -1.01 -1.02 -0.90 -1.10
8.899 7.75 7.42 7.64 7.70 7.67 7.49 7.66 7.78 3.62 3.56 3.77 3.77 4.04 3.99
8.907 9.35 9.18 9.56 9.49 9.53 9.19 9.56 9.79 7.92 8.00 8.06 8.10 8.49 8.49
8.916 6.42 6.43 6.62 6.49 6.42 5.68 5.93 5.94 8.19 8.33 8.15 8.00 8.14 7.99
8.924 1.62 1.60 1.55 1.31 1.01 -0.05 -0.22 -0.64 3.98 4.14 3.81 3.45 3.36 3.17
8.932 -1.22 -1.17 -1.14 -1.38 -1.61 -2.44 -2.58 -3.00 -2.03 -1.73 -1.94 -2.32 -2.20 -2.17
8.941 -2.86 -2.52 -2.27 -2.42 -2.25 -2.36 -2.06 -2.12 -3.60 -3.15 -3.13 -3.44 -3.15 -2.95
8.949 -5.04 -4.69 -4.48 -4.73 -4.47 -4.15 -3.77 -3.74 -3.82 -3.50 -3.56 -3.72 -3.65 -3.54
8.958 -4.18 -4.16 -4.24 -4.64 -4.69 -4.46 -4.51 -4.75 -4.23 -4.25 -4.56 -4.48 -4.73 -4.70
8.966 -0.34 -0.58 -0.81 -1.08 -1.27 -1.05 -1.51 -1.75 -1.89 -2.18 -2.34 -2.06 -2.44 -2.37
8.974 1.10 0.87 0.80 0.92 0.90 1.48 1.00 1.10 0.31 -0.15 0.19 0.60 0.37 0.47
8.983 0.63 0.50 0.55 1.01 1.13 2.07 1.48 1.70 1.86 1.34 1.92 2.38 2.19 2.19
8.991 2.54 2.43 2.20 2.85 2.88 4.04 3.03 3.02 3.36 2.73 3.29 3.73 3.14 2.97
9.000 3.53 3.40 2.96 3.67 3.71 4.99 4.09 4.10 2.68 2.01 2.53 3.00 2.17 2.11
9.008 0.22 0.11 -0.09 0.42 0.61 1.59 1.50 1.71 0.56 0.32 0.62 1.05 0.66 0.89
9.016 -2.94 -2.97 -2.74 -2.75 -2.63 -2.41 -1.84 -1.73 -1.22 -0.81 -1.01 -0.97 -0.56 -0.34
9.024 -3.03 -2.95 -2.49 -2.88 -2.88 -3.33 -2.57 -2.61 -2.02 -1.35 -2.10 -2.55 -1.77 -1.84
9.033 0.23 0.38 0.76 0.38 0.50 -0.20 0.55 0.55 -0.77 -0.27 -1.08 -1.63 -1.09 -1.32
9.041 3.85 3.91 4.11 3.88 4.11 3.44 4.15 4.32 2.78 3.13 2.81 2.45 2.82 2.77
9.049 1.98 1.94 1.92 1.73 1.79 1.12 1.50 1.61 3.78 4.08 4.12 3.75 4.06 4.14
9.058 -2.86 -2.89 -3.13 -3.32 -3.51 -4.26 -4.32 -4.46 -1.66 -1.56 -1.52 -1.99 -1.93 -1.99
9.066 -5.08 -5.10 -5.34 -5.52 -5.68 -6.40 -6.34 -6.41 -6.43 -6.53 -6.49 -6.78 -6.85 -6.93
9.074 -3.99 -4.06 -4.34 -4.56 -4.74 -5.42 -5.29 -5.41 -5.28 -5.38 -5.26 -5.17 -5.27 -5.22
9.083 -0.92 -1.08 -1.52 -1.77 -2.14 -2.75 -3.10 -3.54 -3.31 -3.42 -3.23 -2.86 -3.13 -3.03
9.091 2.24 2.15 1.87 1.83 1.51 1.32 0.85 0.60 -1.40 -1.53 -1.38 -0.94 -1.36 -1.34
9.099 5.62 5.87 6.07 6.46 6.51 6.90 6.98 7.42 4.22 4.19 4.39 4.63 4.47 4.39
9.108 6.00 6.39 6.92 7.51 7.81 8.46 8.93 9.76 9.34 9.28 9.57 9.46 9.71 9.56
9.116 1.58 1.74 1.95 2.29 2.29 2.65 2.72 2.94 6.59 6.40 6.37 6.10 6.20 6.05
9.124 -0.60 -0.61 -0.81 -0.83 -1.09 -0.99 -1.47 -1.99 -0.17 -0.27 -0.66 -0.69 -0.83 -0.84
9.133 -0.39 -0.37 -0.36 -0.52 -0.45 -0.18 -0.48 -0.78 -2.33 -2.15 -2.48 -2.22 -2.19 -2.02
9.141 -1.62 -1.57 -1.31 -1.62 -1.33 -1.06 -1.01 -1.05 -1.47 -1.17 -1.43 -1.36 -1.07 -0.93
9.149 -1.87 -1.90 -1.68 -2.11 -1.94 -1.91 -1.84 -1.98 -1.60 -1.40 -1.72 -2.03 -1.64 -1.62
9.158 -1.00 -1.09 -0.89 -1.15 -0.97 -1.01 -0.96 -0.98 -1.40 -1.36 -1.45 -1.69 -1.40 -1.36
9.166 -0.51 -0.63 -0.48 -0.50 -0.27 -0.37 -0.46 -0.33 -1.04 -1.18 -0.85 -0.73 -0.63 -0.56
9.174 -1.56 -1.76 -1.69 -1.64 -1.58 -1.87 -2.13 -2.12 -1.47 -1.87 -1.40 -1.29 -1.57 -1.63
9.183 -3.95 -4.12 -4.10 -3.96 -4.17 -4.47 -4.57 -4.69 -2.27 -2.66 -2.38 -2.48 -2.99 -3.14
9.191 -3.92 -3.93 -3.93 -3.62 -3.88 -3.91 -3.65 -3.64 -3.29 -3.28 -3.10 -2.96 -3.05 -2.96
9.199 0.71 0.80 0.71 1.00 0.96 1.21 1.58 1.86 -1.55 -1.32 -1.12 -0.62 -0.33 -0.04
9.208 6.64 6.75 6.43 6.48 6.46 6.72 6.80 6.94 4.46 4.58 4.64 4.94 4.99 5.10
9.216 6.84 6.97 6.50 6.38 6.13 6.23 6.05 5.87 7.81 7.81 7.64 7.50 7.22 7.06
9.224 0.49 0.70 0.39 0.40 0.20 0.32 0.32 0.37 3.64 3.72 3.44 3.21 2.97 2.73
9.233 -4.48 -4.29 -4.33 -4.23 -4.22 -4.02 -3.83 -3.54 -2.45 -2.22 -2.43 -2.46 -2.39 -2.48
9.241 -3.06 -3.10 -3.10 -3.13 -3.15 -3.02 -3.06 -3.06 -4.40 -4.28 -4.42 -4.42 -4.34 -4.24
9.249 0.84 0.58 0.50 0.37 0.20 0.36 0.02 -0.30 -2.78 -2.94 -3.13 -3.35 -3.55 -3.48
9.258 0.66 0.34 0.27 0.09 -0.01 0.11 -0.32 -0.69 -1.25 -1.48 -1.72 -1.98 -2.29 -2.34
9.266 -2.54 -2.68 -2.48 -2.55 -2.14 -2.09 -2.22 -2.33 -1.15 -1.21 -1.27 -1.35 -1.52 -1.61
9.274 -2.68 -2.53 -2.03 -1.83 -0.98 -0.89 -0.44 -0.23 -0.25 -0.09 0.17 0.26 0.35 0.38
9.283 0.86 0.93 1.23 1.48 1.96 2.03 2.52 2.62 1.82 1.88 2.29 2.38 2.54 2.64
9.291 3.30 3.11 2.91 3.10 2.99 3.18 3.06 3.00 2.67 2.32 2.73 2.76 2.67 2.59
9.299 3.07 2.81 2.43 2.60 2.42 2.71 2.07 2.12 2.40 1.96 2.44 2.57 2.46 2.26
9.308 3.02 2.91 2.73 2.81 2.87 2.79 2.28 2.44 2.76 2.70 2.99 3.11 3.30 3.14
9.316 1.40 1.56 1.68 1.60 1.73 1.13 1.21 1.30 2.26 2.50 2.25 2.10 2.43 2.28
9.324 -3.62 -3.37 -3.15 -3.44 -3.53 -4.42 -3.99 -4.11 -2.12 -1.88 -2.48 -2.68 -2.43 -2.43
9.332 -5.05 -4.84 -4.70 -5.00 -5.21 -5.88 -5.46 -5.59 -6.74 -6.64 -7.15 -7.11 -7.01 -6.73
9.341 0.26 0.38 0.45 0.26 -0.03 -0.29 -0.02 -0.02 -4.23 -4.17 -4.40 -4.19 -4.18 -3.86
9.349 3.98 3.94 3.97 3.70 3.25 3.06 3.12 3.05 2.29 2.41 2.34 2.49 2.47 2.57
9.357 0.63 0.51 0.59 0.43 0.10 0.00 0.01 -0.01 3.45 3.58 3.60 3.57 3.62 3.47
9.366 -3.53 -3.63 -3.59 -3.50 -3.53 -3.41 -3.38 -3.19 -0.53 -0.40 -0.17 -0.14 0.16 0.08
9.374 -1.16 -1.14 -1.36 -1.27 -1.26 -0.98 -1.11 -0.97 -2.21 -2.14 -1.77 -1.57 -1.28 -1.01
9.382 2.73 2.95 2.64 2.64 2.53 3.00 2.72 2.62 0.59 0.47 0.67 0.83 0.63 1.01
9.391 1.03 1.26 1.17 1.26 1.15 1.70 1.48 1.32 2.50 2.29 2.18 2.27 1.66 1.83
9.399 -1.96 -1.83 -1.72 -1.37 -1.30 -0.86 -0.84 -0.72 0.82 0.77 0.69 0.77 0.30 0.16
9.407 -1.74 -1.66 -1.59 -1.12 -1.00 -0.70 -0.57 -0.22 -0.84 -0.70 -0.41 -0.50 -0.50 -0.86
9.416 0.45 0.40 0.42 0.70 0.65 0.79 0.96 1.21 -0.51 -0.48 -0.18 -0.57 -0.43 -0.72
9.424 1.95 1.79 1.98 2.08 1.97 2.10 2.38 2.49 2.19 2.03 1.92 1.29 1.17 0.98
9.432 0.55 0.35 0.69 0.67 0.49 0.59 0.78 0.70 4.52 4.40 4.03 3.43 3.09 2.92
9.440 -1.01 -1.16 -0.95 -1.26 -1.55 -1.83 -1.79 -2.14 1.08 1.17 0.73 0.45 0.41 0.42
9.449 -0.64 -0.73 -0.73 -1.23 -1.39 -1.97 -1.93 -2.27 -3.89 -3.68 -4.06 -4.00 -3.51 -3.30
9.457 0.01 -0.11 -0.21 -0.60 -0.56 -0.97 -1.06 -1.27 -4.79 -4.71 -4.86 -4.58 -4.04 -3.87
9.465 0.01 -0.19 -0.42 -0.59 -0.49 -0.56 -1.00 -1.20 -4.25 -4.40 -4.23 -3.73 -3.52 -3.44
9.474 -1.01 -1.26 -1.61 -1.62 -1.39 -1.25 -1.88 -2.07 -3.46 -3.83 -3.46 -2.85 -2.85 -2.80
9.482 0.92 0.82 0.56 0.63 1.27 1.45 1.10 1.05 -0.52 -0.84 -0.62 -0.15 -0.26 -0.24
9.491 4.24 4.48 4.50 4.63 5.77 5.94 6.08 6.26 5.26 5.28 5.34 5.50 5.30 5.21
9.499 1.87 2.24 2.35 2.47 3.68 3.78 4.12 4.38 7.27 7.49 7.53 7.44 7.15 6.94
9.507 -1.27 -1.01 -1.10 -1.07 -0.27 -0.45 -0.20 0.02 2.28 2.42 2.30 2.10 1.96 1.75
9.516 -1.46 -1.24 -1.27 -1.27 -0.79 -1.21 -0.97 -0.64 -0.36 -0.22 -0.43 -0.77 -0.54 -0.65
9.524 -2.24 -2.09 -1.81 -1.78 -1.41 -2.01 -1.66 -1.36 -0.15 0.13 -0.09 -0.50 -0.18 -0.19
9.532 -2.74 -2.81 -2.64 -2.64 -2.50 -3.38 -3.07 -3.28 -2.31 -1.91 -2.29 -2.55 -2.43 -2.41
9.541 -2.56 -2.79 -2.93 -2.88 -3.03 -3.79 -3.54 -4.05 -3.60 -3.26 -3.58 -3.65 -3.68 -3.53
9.549 -1.44 -1.57 -1.71 -1.55 -1.94 -2.12 -1.80 -2.04 -2.17 -2.00 -1.94 -1.86 -1.79 -1.51
9.557 -0.59 -0.57 -0.57 -0.58 -1.37 -1.13 -1.00 -1.10 -0.75 -0.78 -0.35 -0.23 0.04 0.27
9.566 -0.63 -0.64 -0.56 -0.83 -2.26 -1.71 -2.13 -2.33 -2.53 -2.86 -2.46 -2.28 -2.11 -1.98
9.574 1.42 1.39 1.48 1.35 -0.66 0.40 -0.32 -0.37 -2.62 -3.11 -2.94 -2.69 -2.90 -2.74
9.583 2.90 2.90 2.97 3.25 0.97 2.71 2.14 2.60 3.38 2.99 3.29 3.62 3.15 3.34
9.591 3.71 3.72 3.62 4.22 1.91 4.21 3.62 4.38 7.94 7.56 8.32 8.70 7.97 7.95
9.599 5.11 5.13 4.84 5.39 3.59 5.51 4.66 5.00 6.06 5.61 6.48 6.65 5.77 5.39
9.608 2.70 2.76 2.68 2.92 2.67 3.15 2.65 2.59 -0.10 -0.36 0.02 -0.19 -0.69 -1.00
9.616 0.23 0.30 0.63 0.47 2.10 0.90 1.30 1.25 -3.45 -3.24 -3.58 -3.99 -3.78 -3.78
9.624 0.46 0.31 0.58 -0.05 2.31 -0.04 0.68 0.36 -1.49 -1.04 -1.95 -2.30 -1.77 -1.75
9.633 -0.53 -0.95 -1.04 -1.85 0.12 -2.28 -1.88 -2.45 -2.65 -2.57 -3.61 -3.71 -3.35 -3.43
9.641 -2.20 -2.54 -2.60 -3.01 -1.41 -3.06 -2.70 -2.91 -5.02 -5.26 -5.94 -5.93 -5.68 -5.77
9.649 -3.76 -3.80 -3.51 -3.44 -1.94 -2.71 -2.06 -1.70 -1.28 -1.26 -1.39 -1.44 -0.99 -1.06
9.658 -3.19 -2.98 -2.61 -2.38 -1.09 -1.11 -0.39 0.21 3.65 4.05 4.28 4.26 4.80 4.67
9.666 -0.82 -0.57 -0.52 -0.32 0.50 0.93 1.28 1.62 4.20 4.69 4.96 4.89 5.24 5.02
9.674 -0.86 -0.63 -0.96 -0.80 -0.54 0.08 -0.03 -0.16 1.43 1.70 1.82 1.73 1.76 1.69
9.683 -1.83 -1.60 -1.99 -1.85 -2.04 -1.29 -1.66 -2.00 -1.22 -1.20 -1.12 -1.09 -1.28 -1.07
9.691 -1.92 -1.79 -2.00 -2.00 -2.49 -1.83 -2.30 -2.74 -2.40 -2.41 -2.30 -2.12 -2.25 -1.93
9.699 0.39 0.40 0.34 0.27 -0.40 0.06 -0.34 -0.83 -2.11 -2.11 -2.02 -1.72 -1.78 -1.46
9.708 3.64 3.59 3.54 3.65 2.88 3.18 2.98 2.60 0.85 0.69 0.70 0.86 0.64 0.80
9.716 1.89 1.77 1.60 1.70 0.86 0.82 0.75 0.42 2.63 2.38 2.37 2.33 1.90 1.88
9.724 -1.79 -1.93 -2.05 -2.14 -2.86 -3.09 -3.03 -3.10 -0.18 -0.34 -0.15 -0.16 -0.45 -0.38
9.733 -2.55 -2.58 -2.39 -2.52 -2.90 -3.07 -2.73 -2.32 -2.60 -2.52 -2.19 -2.18 -2.05 -1.88
9.741 -1.09 -1.04 -0.66 -0.85 -1.11 -1.44 -0.94 -0.52 -1.55 -1.26 -1.34 -1.53 -1.15 -1.15
9.749 1.19 1.22 1.54 1.26 0.97 0.47 0.90 1.11 -0.32 -0.11 -0.71 -1.10 -0.79 -0.98
9.758 2.43 2.42 2.55 2.42 2.24 2.15 2.27 2.49 -0.45 -0.48 -1.02 -1.34 -1.21 -1.48
9.766 2.67 2.68 2.56 2.67 2.62 3.26 2.89 3.13 -0.07 -0.31 -0.49 -0.57 -0.62 -0.95
9.774 0.96 0.92 0.61 0.83 0.83 1.77 0.99 1.13 0.30 0.02 0.07 0.19 0.12 -0.16
9.783 0.03 -0.08 -0.34 -0.13 -0.08 0.58 -0.16 -0.06 0.33 0.29 0.50 0.80 0.85 0.91
9.791 4.26 4.27 4.23 4.45 4.70 5.10 4.85 5.16 3.69 3.84 4.14 4.48 4.48 4.80
9.799 6.61 6.74 6.70 6.87 7.14 7.30 7.30 7.53 7.52 7.58 7.73 7.89 7.69 7.80
9.808 1.69 1.69 1.44 1.38 1.35 1.01 0.85 0.45 4.96 4.77 4.59 4.61 4.16 3.99
9.816 -5.49 -5.64 -5.69 -5.90 -6.01 -6.60 -6.75 -7.33 -2.28 -2.59 -2.84 -2.81 -3.26 -3.30
9.825 -9.01 -9.10 -8.65 -8.85 -8.71 -9.25 -9.15 -9.35 -8.02 -8.12 -8.01 -7.92 -7.87 -7.64
9.833 -6.07 -5.99 -5.39 -5.60 -5.42 -6.03 -5.74 -5.77 -7.70 -7.53 -7.23 -7.27 -6.79 -6.62
9.841 -0.13 -0.04 0.40 0.26 0.26 -0.44 0.01 0.02 -2.24 -2.05 -1.99 -2.21 -1.90 -1.97
9.850 2.59 2.64 2.97 2.97 3.01 2.36 3.01 3.17 2.64 2.78 2.65 2.40 2.45 2.33
9.858 0.05 0.13 0.38 0.45 0.64 0.19 0.86 1.12 2.66 2.85 2.86 2.64 2.79 2.80
9.866 -2.59 -2.41 -2.49 -2.31 -2.13 -2.27 -1.88 -1.70 -1.34 -1.12 -0.77 -0.87 -0.52 -0.45
9.875 1.12 1.30 0.80 1.13 1.10 1.28 1.30 1.22 -1.10 -1.05 -0.65 -0.60 -0.49 -0.53
9.883 5.30 5.24 4.59 4.94 4.73 5.26 4.84 4.61 4.78 4.60 4.75 4.82 4.32 4.13
9.891 2.32 1.95 1.31 1.60 1.44 2.41 1.51 1.32 4.60 4.23 4.51 4.67 3.90 3.78
9.900 -1.96 -2.42 -3.09 -2.88 -2.89 -1.78 -2.78 -2.90 -2.80 -3.18 -2.52 -2.17 -2.63 -2.49
9.908 -1.98 -2.29 -2.71 -2.70 -2.58 -1.88 -2.25 -2.30 -5.98 -6.10 -5.62 -5.19 -5.25 -4.87
9.916 0.70 0.72 0.82 0.55 0.81 0.86 1.36 1.35 -1.94 -1.82 -2.16 -1.97 -1.87 -1.59
9.925 4.29 4.59 4.97 4.62 4.87 4.46 5.37 5.39 3.59 3.74 2.71 2.48 2.57 2.56
9.933 4.93 5.28 5.59 5.39 5.56 5.03 5.80 5.90 5.97 6.07 5.10 4.77 4.97 4.78
9.941 0.80 0.99 1.15 1.03 1.01 0.43 0.84 0.80 4.03 4.08 3.53 3.37 3.78 3.59
9.950 -3.72 -3.74 -3.59 -3.80 -4.12 -4.65 -4.56 -4.87 -0.77 -0.78 -1.13 -1.20 -0.83 -0.96
9.958 -4.82 -4.82 -4.61 -4.78 -5.01 -5.13 -5.10 -5.27 -4.71 -4.74 -4.91 -4.96 -4.85 -4.91
9.966 -3.69 -3.56 -3.34 -3.37 -3.25 -2.97 -2.76 -2.58 -4.31 -4.19 -4.05 -3.99 -3.97 -4.01
9.975 -3.65 -3.63 -3.47 -3.41 -3.27 -2.82 -2.64 -2.33 -2.72 -2.51 -2.24 -2.08 -2.09 -2.16
9.983 -3.10 -3.20 -3.23 -3.19 -3.37 -2.90 -3.08 -3.05 -2.77 -2.74 -2.55 -2.50 -2.72 -2.84
9.991 0.30 0.18 -0.03 -0.04 -0.40 -0.07 -0.60 -0.81 -0.80 -0.84 -0.56 -0.63 -0.75 -0.76
10.000 2.70 2.60 2.50 2.54 2.44 2.66 1.88 1.99 1.84 1.92 2.49 2.51 2.83 3.08
10.008 3.05 3.02 3.17 3.32 3.52 3.72 2.53 3.08 1.97 1.97 2.56 2.59 2.99 3.20
10.016 4.98 5.03 5.40 5.59 5.75 5.90 4.48 5.14 2.88 2.61 2.79 2.61 2.56 2.52
10.025 7.28 7.41 7.90 7.96 8.05 8.08 6.73 7.22 6.57 6.27 6.09 5.74 5.29 5.06
10.033 4.73 4.80 5.29 5.11 5.13 4.84 4.04 4.13 7.80 7.79 7.58 7.36 7.09 6.94
10.041 -1.54 -1.58 -1.10 -1.45 -1.47 -2.19 -1.32 -1.65 1.68 1.95 1.70 1.65 1.85 1.98
10.050 -4.99 -4.99 -4.59 -4.99 -4.99 -5.88 -3.60 -4.17 -4.65 -4.38 -4.81 -4.90 -4.68 -4.51
10.058 -4.78 -4.78 -4.68 -4.90 -4.90 -5.48 -3.85 -4.32 -5.47 -5.37 -5.72 -5.75 -5.76 -5.71
10.066 -3.78 -3.83 -4.11 -3.92 -3.84 -3.84 -3.83 -3.85 -5.02 -5.04 -5.02 -4.75 -4.90 -4.85
10.075 -3.68 -3.77 -4.46 -4.01 -3.97 -3.75 -4.26 -4.21 -4.30 -4.41 -4.22 -3.82 -4.08 -4.09
10.083 -3.05 -3.23 -4.40 -4.03 -4.25 -4.32 -4.10 -4.50 -3.91 -4.11 -4.10 -3.87 -4.05 -4.08
10.091 0.89 0.70 -0.82 -0.51 -0.85 -1.10 -0.43 -1.09 -2.46 -2.67 -2.77 -2.73 -2.74 -2.71
10.099 4.65 4.69 3.34 3.86 3.80 3.79 4.47 4.17 2.12 2.09 2.07 2.06 2.15 2.07
10.108 5.68 6.01 5.44 6.07 6.42 6.76 7.61 7.99 5.63 5.89 5.97 5.97 6.13 5.89
10.116 3.84 4.17 4.36 4.59 4.83 5.12 5.55 6.05 6.79 7.20 7.34 7.34 7.52 7.30
10.124 -1.15 -1.08 -0.43 -0.76 -0.88 -0.86 -1.14 -1.07 3.59 3.95 4.07 4.09 4.26 4.33
10.133 -3.47 -3.56 -2.60 -3.16 -3.35 -3.43 -3.72 -3.89 -2.37 -2.13 -2.19 -2.23 -2.14 -1.79
10.141 -2.31 -2.48 -1.58 -2.26 -2.44 -2.58 -2.89 -3.20 -3.74 -3.70 -4.05 -4.18 -4.28 -4.01
10.149 -1.70 -1.93 -1.22 -1.92 -2.05 -2.09 -2.61 -2.79 -2.71 -2.87 -3.28 -3.33 -3.48 -3.39
10.158 -1.05 -1.13 -0.45 -0.91 -0.80 -0.48 -0.95 -0.65 -1.63 -1.80 -1.88 -1.82 -1.78 -1.75
10.166 -0.62 -0.47 0.03 -0.09 0.09 0.70 0.22 0.67 -0.15 -0.51 -0.20 -0.14 -0.12 -0.18
10.174 0.32 0.51 0.66 0.76 0.73 1.37 0.70 0.92 0.41 -0.22 0.19 0.18 -0.01 -0.13
10.183 2.10 2.14 1.89 2.14 2.03 2.58 1.84 1.92 1.48 0.90 1.37 1.37 1.11 1.04
10.191 3.21 3.10 2.52 3.07 3.15 3.86 3.27 3.59 2.29 1.91 2.72 2.86 2.58 2.58
10.199 2.46 2.25 1.67 2.40 2.64 3.40 2.99 3.53 2.89 2.65 3.58 3.78 3.49 3.47
10.208 -0.73 -0.92 -1.16 -0.80 -0.59 -0.49 -0.63 -0.35 2.11 2.00 2.35 2.42 2.27 2.13
10.216 -1.75 -1.62 -1.41 -1.62 -1.44 -2.27 -1.82 -1.88 -0.53 -0.30 -0.82 -0.98 -0.83 -1.02
10.224 0.38 0.74 1.16 0.66 0.76 -0.66 0.24 -0.04 -0.70 -0.10 -1.10 -1.48 -1.10 -1.19
10.233 0.80 0.96 1.20 0.74 0.71 -0.73 -0.04 -0.49 -0.81 -0.22 -1.08 -1.51 -1.16 -1.15
10.241 -0.49 -0.63 -0.56 -0.73 -0.74 -1.74 -1.35 -1.76 -2.32 -1.84 -2.24 -2.47 -2.17 -2.10
10.249 -1.15 -1.38 -1.32 -1.21 -1.09 -1.58 -1.11 -1.33 -1.54 -1.08 -1.03 -0.87 -0.55 -0.34
10.258 -1.27 -1.45 -1.60 -1.32 -1.38 -1.49 -1.03 -1.18 -0.27 -0.06 0.20 0.61 0.74 0.94
10.266 -3.42 -3.60 -4.03 -3.77 -4.20 -4.05 -3.93 -4.18 -2.41 -2.62 -2.60 -2.34 -2.62 -2.69
10.274 -5.23 -5.32 -5.78 -5.66 -6.06 -5.54 -5.73 -5.95 -6.41 -6.75 -6.92 -6.84 -7.20 -7.37
10.283 -1.69 -1.62 -1.95 -1.95 -1.98 -1.13 -1.52 -1.56 -4.71 -4.78 -4.82 -4.67 -4.76 -4.73
10.291 2.79 2.93 2.77 2.72 2.90 3.83 3.34 3.44 2.18 2.26 2.31 2.43 2.47 2.61
10.299 4.78 4.90 4.90 5.00 5.20 6.15 5.80 6.06 6.92 6.83 6.88 6.74 6.74 6.78
10.308 5.61 5.70 5.72 5.95 6.01 6.79 6.61 6.85 8.30 8.06 8.11 7.75 7.74 7.58
10.316 5.20 5.29 5.35 5.48 5.39 5.69 5.64 5.77 6.11 5.90 5.93 5.55 5.60 5.41
10.324 4.56 4.75 4.84 4.75 4.61 4.45 4.42 4.50 3.92 3.80 3.80 3.63 3.51 3.38
10.333 1.17 1.29 1.29 0.96 0.69 0.21 0.01 -0.17 3.89 3.78 3.65 3.65 3.25 3.14
10.341 -4.56 -4.58 -4.42 -4.88 -5.15 -5.75 -5.75 -6.01 -0.51 -0.46 -0.75 -0.80 -0.91 -0.88
10.349 -5.93 -5.94 -5.50 -5.85 -5.79 -6.32 -5.88 -5.78 -6.82 -6.49 -6.74 -6.83 -6.40 -6.22
10.358 -4.20 -4.18 -3.79 -3.90 -3.61 -3.91 -3.53 -3.20 -7.69 -7.42 -7.46 -7.39 -7.01 -6.83
10.366 -4.24 -4.26 -4.18 -4.03 -3.77 -3.79 -3.87 -3.60 -6.38 -6.45 -6.20 -5.89 -5.85 -5.74
10.374 -5.09 -5.18 -5.22 -4.96 -4.70 -4.62 -4.90 -4.64 -6.81 -7.00 -6.54 -6.10 -6.11 -6.03
10.383 -2.03 -2.08 -1.95 -1.70 -1.37 -1.41 -1.36 -1.03 -4.85 -4.91 -4.50 -4.16 -3.99 -3.86
10.391 4.39 4.37 4.40 4.46 4.46 4.16 4.26 4.24 1.80 1.79 2.00 2.22 2.34 2.58
10.399 6.05 5.90 5.56 5.35 4.79 4.14 3.93 3.28 5.62 5.48 5.56 5.80 5.71 5.95
10.408 2.61 2.44 2.24 2.08 1.65 1.01 1.11 0.57 3.30 3.21 3.24 3.37 3.32 3.33
10.416 0.13 0.16 0.25 0.34 0.56 0.18 0.91 1.01 1.38 1.53 1.47 1.28 1.35 1.01
10.424 0.63 0.81 0.73 0.87 1.24 1.01 1.85 2.08 2.07 2.25 2.06 1.53 1.51 1.04
10.433 2.97 3.16 2.93 2.93 3.03 2.91 3.46 3.48 3.81 3.99 3.79 3.19 3.10 2.89
10.441 2.33 2.42 2.41 2.31 2.24 2.38 2.57 2.55 4.47 4.76 4.71 4.44 4.39 4.49
10.449 -1.52 -1.54 -1.26 -1.38 -1.43 -1.02 -1.19 -1.13 1.25 1.47 1.34 1.30 1.22 1.31
10.458 -2.56 -2.68 -2.37 -2.53 -2.50 -2.07 -2.55 -2.38 -1.69 -1.69 -1.95 -2.07 -2.13 -2.18
10.466 -0.42 -0.64 -0.58 -0.66 -0.67 -0.35 -0.99 -0.88 -0.35 -0.50 -0.61 -0.73 -0.71 -0.83
10.474 0.04 -0.24 -0.46 -0.28 -0.52 -0.18 -0.89 -1.09 0.23 -0.13 -0.24 -0.24 -0.46 -0.63
10.483 -3.51 -3.78 -4.16 -3.78 -4.20 -3.63 -4.47 -4.89 -2.54 -3.08 -3.20 -3.06 -3.63 -3.72
10.491 -5.86 -5.99 -6.42 -5.83 -5.99 -4.82 -5.64 -5.89 -4.15 -4.68 -4.34 -3.90 -4.52 -4.46
10.499 -1.57 -1.48 -1.79 -1.03 -0.62 1.07 0.62 0.73 -2.45 -2.68 -1.78 -1.13 -1.41 -1.26
10.508 4.07 4.26 4.12 4.66 5.22 6.54 6.50 6.71 -0.27 -0.03 0.80 1.31 1.58 1.71
10.516 4.32 4.49 4.50 4.45 4.62 4.85 5.03 5.07 -0.06 0.31 0.36 0.37 0.89 0.95
10.524 0.79 1.04 1.20 0.67 0.46 -0.09 0.19 0.23 0.91 1.12 0.57 0.17 0.70 0.75
10.533 -1.60 -1.19 -1.01 -1.59 -1.85 -2.48 -2.19 -2.08 2.41 2.52 2.09 1.74 2.28 2.36
10.541 0.02 0.41 0.54 0.03 -0.04 -0.74 -0.44 -0.41 0.66 0.68 0.37 0.16 0.54 0.58
10.549 2.94 3.02 3.20 2.61 2.65 1.68 1.97 1.94 -0.28 -0.23 -0.55 -0.76 -0.64 -0.66
10.557 2.42 2.16 2.36 1.81 1.78 0.75 0.98 0.88 0.32 0.45 0.22 0.11 0.03 0.03
10.566 -0.07 -0.38 -0.31 -0.52 -0.68 -1.58 -1.37 -1.65 -0.78 -0.82 -1.16 -1.24 -1.62 -1.63
10.574 -0.49 -0.67 -0.73 -0.64 -0.85 -1.65 -1.51 -1.84 -0.45 -0.68 -1.12 -1.21 -1.75 -1.82
10.582 0.95 0.81 0.77 1.00 0.87 0.30 0.36 0.30 0.46 0.37 0.41 0.57 0.39 0.48
10.591 1.52 1.38 1.51 1.84 1.96 1.82 1.95 2.38 1.28 1.57 2.28 2.74 3.11 3.37
10.599 -0.24 -0.32 -0.03 0.37 0.77 0.96 1.19 1.81 2.37 2.74 3.53 3.87 4.24 4.34
10.607 -2.75 -2.70 -2.41 -2.01 -1.49 -1.31 -1.01 -0.60 0.67 0.63 0.87 0.77 0.61 0.40
10.615 -4.42 -4.27 -4.07 -3.75 -3.37 -3.22 -2.90 -2.71 -0.99 -1.28 -1.34 -1.60 -2.04 -2.19
10.624 -6.19 -6.07 -6.02 -5.84 -5.71 -5.36 -5.17 -5.07 -2.73 -2.89 -2.83 -2.77 -2.97 -2.82
10.632 -6.11 -6.10 -6.19 -6.25 -6.25 -5.84 -5.75 -5.67 -5.57 -5.58 -5.59 -5.42 -5.33 -5.21
10.640 -0.68 -0.71 -0.80 -1.20 -1.25 -1.26 -1.16 -1.20 -3.13 -2.91 -3.21 -3.36 -3.08 -3.18
10.649 5.26 5.27 5.25 4.65 4.48 3.97 4.05 3.74 2.13 2.53 2.08 1.76 2.11 2.00
10.657 6.15 6.16 6.11 5.68 5.45 4.93 4.92 4.58 3.82 4.04 3.74 3.56 3.73 3.61
10.665 5.94 5.92 5.78 5.66 5.44 5.19 5.05 4.87 3.61 3.53 3.59 3.61 3.53 3.32
10.674 5.88 5.82 5.51 5.50 5.18 4.96 4.63 4.41 3.04 2.81 3.03 3.17 2.95 2.70
10.682 2.05 1.98 1.58 1.55 1.09 0.83 0.41 0.12 1.38 1.16 1.18 1.31 1.04 0.86
10.691 -2.72 -2.74 -2.98 -2.91 -3.25 -3.21 -3.53 -3.57 -1.44 -1.59 -1.67 -1.56 -1.70 -1.69
10.699 -4.07 -4.12 -4.20 -4.03 -4.12 -3.66 -3.88 -3.69 -2.77 -2.89 -2.84 -2.77 -2.70 -2.52
10.707 -3.73 -3.79 -3.86 -3.74 -3.82 -3.12 -3.40 -3.47 -2.31 -2.47 -2.38 -2.46 -2.38 -2.20
10.716 -4.29 -4.24 -4.29 -4.16 -4.34 -3.41 -3.66 -4.05 -3.66 -3.80 -3.86 -4.02 -3.98 -3.92
10.724 -3.39 -3.24 -3.18 -2.85 -3.00 -1.83 -1.76 -1.99 -3.82 -3.75 -3.88 -3.96 -3.82 -3.81
10.732 1.68 1.88 2.11 2.57 2.49 3.68 3.96 4.00 1.00 1.34 1.29 1.23 1.54 1.61
10.741 4.91 5.04 5.36 5.71 5.68 6.60 6.71 6.73 5.62 5.92 5.88 5.73 6.01 6.10
10.749 1.87 1.91 2.22 2.45 2.39 3.05 2.80 2.76 4.67 4.61 4.43 4.28 4.24 4.28
10.758 -1.06 -1.00 -0.83 -0.58 -0.72 -0.18 -0.62 -0.49 0.99 0.70 0.47 0.41 0.21 0.29
10.766 -0.64 -0.64 -0.75 -0.48 -0.57 -0.13 -0.53 -0.19 -0.58 -0.79 -0.78 -0.74 -0.82 -0.67
10.774 1.94 1.97 1.66 1.83 1.97 2.34 1.96 2.35 0.24 0.24 0.58 0.62 0.68 0.81
10.783 5.00 5.17 4.80 4.96 5.47 5.64 5.26 5.62 2.93 3.06 3.67 3.74 3.74 3.77
10.791 2.07 2.18 1.66 1.92 2.93 2.74 2.34 2.64 3.78 3.78 4.57 4.93 4.43 4.44
10.799 -5.19 -5.38 -5.85 -5.74 -4.35 -5.04 -5.29 -5.14 -1.18 -1.43 -0.72 -0.14 -1.03 -0.92
10.808 -7.00 -7.50 -7.44 -8.02 -6.50 -7.91 -7.66 -7.70 -5.86 -6.11 -5.84 -5.45 -6.08 -5.93
10.816 -3.08 -3.63 -2.92 -4.35 -2.90 -5.06 -4.28 -4.45 -5.20 -5.16 -5.45 -5.52 -5.57 -5.58
10.824 0.60 0.32 1.26 -0.54 0.44 -2.11 -1.02 -1.23 -2.48 -2.16 -2.72 -3.10 -2.66 -2.87
10.833 0.95 0.95 1.60 0.20 0.12 -2.26 -1.11 -1.31 -1.02 -0.68 -1.20 -1.49 -0.96 -1.20
10.841 1.07 1.21 1.38 0.90 -0.43 -2.25 -1.19 -1.31 -0.78 -0.56 -1.06 -1.14 -0.74 -0.97
10.849 3.61 3.79 3.60 3.98 1.97 0.88 1.69 1.78 0.81 0.94 0.46 0.47 0.87 0.50
10.858 4.06 4.19 3.87 4.65 2.77 2.59 2.98 3.15 2.46 2.43 2.16 2.32 2.61 2.10
10.866 2.14 2.20 1.96 2.76 1.26 1.95 1.96 2.05 2.04 1.88 1.89 2.19 2.19 1.82
10.874 -0.44 -0.47 -0.56 0.15 -1.00 0.18 -0.12 -0.06 0.97 0.86 1.05 1.26 1.09 0.99
10.883 -4.57 -4.55 -4.57 -3.96 -4.61 -3.13 -3.69 -3.69 -1.85 -1.92 -1.70 -1.68 -1.94 -1.88
10.891 -5.41 -5.11 -5.12 -4.56 -4.70 -2.87 -3.50 -3.68 -4.04 -4.15 -4.02 -4.11 -4.37 -4.26
10.899 -1.23 -0.77 -0.87 -0.32 -0.13 1.87 1.32 1.02 -1.01 -1.15 -1.15 -1.30 -1.48 -1.32
10.907 3.50 3.84 3.56 4.02 4.44 6.02 5.57 5.35 4.24 4.13 4.05 3.74 3.77 4.07
10.916 4.65 4.74 4.43 4.68 5.26 6.09 5.61 5.54 6.35 6.30 6.28 5.73 6.11 6.57
10.924 0.63 0.53 0.43 0.40 1.12 1.39 0.89 0.81 2.42 2.37 2.40 1.86 2.42 3.02
10.932 -2.67 -2.86 -2.79 -2.98 -2.21 -2.02 -2.45 -2.56 -2.70 -2.64 -2.71 -2.94 -2.52 -1.86
10.941 -1.69 -1.94 -1.79 -2.07 -1.38 -0.77 -1.18 -1.27 -2.08 -1.78 -1.90 -1.92 -1.83 -1.50
10.949 0.00 -0.22 -0.03 -0.36 0.20 1.07 0.71 0.65 0.32 0.70 0.64 0.66 0.42 0.29
10.957 0.75 0.57 0.67 0.39 0.78 0.97 0.88 0.89 0.06 0.25 0.31 0.44 0.23 0.08
10.966 0.74 0.57 0.45 0.26 0.40 -0.59 -0.26 -0.12 -0.90 -1.01 -0.79 -0.47 -0.43 -0.27
10.974 1.46 1.36 1.13 1.02 0.97 -0.63 -0.01 0.22 -0.33 -0.56 -0.22 0.23 0.29 0.48
10.982 2.04 2.04 1.97 1.88 1.77 0.51 0.99 1.28 1.48 1.37 1.69 2.07 1.86 1.66
10.991 -0.69 -0.62 -0.46 -0.56 -0.67 -1.25 -1.08 -0.79 0.53 0.50 0.64 0.87 0.46 -0.08
10.999 -3.83 -3.78 -3.47 -3.64 -3.70 -3.88 -3.78 -3.61 -2.63 -2.65 -2.64 -2.57 -2.88 -3.40
11.008 -2.19 -2.31 -1.96 -2.28 -2.25 -2.30 -2.18 -2.16 -2.72 -2.73 -2.80 -2.93 -2.96 -3.40
11.016 3.60 3.37 3.55 3.16 3.20 3.13 3.19 3.10 1.07 1.08 0.84 0.68 0.74 0.33
11.024 6.22 6.15 5.95 5.73 5.67 5.61 5.50 5.35 5.03 5.10 4.66 4.60 4.51 4.19
11.033 1.06 1.31 0.95 1.00 0.86 0.99 0.71 0.49 3.64 3.67 3.28 3.15 2.93 2.70
11.041 -5.16 -4.70 -4.84 -4.57 -4.69 -4.48 -4.71 -4.88 -1.98 -2.06 -2.19 -2.45 -2.56 -2.68
11.049 -5.64 -5.23 -5.09 -4.80 -4.86 -4.84 -4.82 -4.85 -4.90 -5.06 -4.97 -5.20 -5.14 -5.15
11.058 -2.87 -2.62 -2.40 -2.23 -2.28 -2.41 -2.16 -2.15 -3.96 -4.06 -3.95 -3.97 -3.84 -3.84
11.066 -1.19 -1.11 -1.00 -0.83 -0.94 -1.23 -0.84 -0.79 -1.78 -1.80 -1.67 -1.50 -1.42 -1.37
11.074 -0.55 -0.68 -0.66 -0.43 -0.63 -1.16 -0.72 -0.57 -0.27 -0.30 -0.12 0.02 0.07 0.30
11.083 1.08 0.75 0.75 0.96 0.57 -0.24 0.16 0.34 0.61 0.55 0.81 0.96 1.11 1.60
11.091 2.98 2.55 2.44 2.65 2.01 0.81 1.24 1.42 1.35 1.25 1.67 2.09 2.30 2.96
11.100 3.91 3.56 3.29 3.55 2.96 1.82 2.23 2.46 1.65 1.46 1.95 2.53 2.69 3.34
11.108 3.70 3.54 3.22 3.31 3.23 3.12 3.20 3.31 2.40 2.29 2.49 2.77 2.93 3.36
11.116 1.91 1.93 1.68 1.45 1.96 3.29 2.82 2.60 2.29 2.44 2.16 1.89 2.04 2.21
11.124 -0.03 0.13 0.02 -0.32 0.41 2.50 1.69 1.23 0.94 1.29 0.73 0.16 0.23 0.28
11.133 -1.32 -1.11 -1.04 -1.20 -0.64 1.11 0.39 0.08 0.25 0.57 0.08 -0.36 -0.46 -0.49
11.141 -2.26 -2.07 -1.80 -1.81 -1.40 -0.35 -0.82 -0.80 -0.66 -0.50 -0.71 -0.88 -1.09 -1.27
11.149 -1.46 -1.34 -1.03 -1.08 -0.80 -0.18 -0.48 -0.39 -1.27 -1.14 -1.11 -1.11 -1.23 -1.55
11.158 0.16 0.19 0.29 0.20 0.29 0.54 0.44 0.35 -0.29 -0.18 -0.15 -0.09 -0.21 -0.57
11.166 0.12 0.11 0.01 -0.06 -0.10 -0.16 -0.02 -0.30 0.94 0.94 0.86 0.86 0.67 0.31
11.174 -1.01 -1.04 -1.23 -1.35 -1.56 -1.85 -1.66 -1.94 0.29 0.13 0.13 0.03 -0.07 -0.44
11.183 -1.38 -1.41 -1.62 -1.69 -2.16 -2.64 -2.52 -2.62 -1.96 -2.29 -2.06 -2.17 -2.18 -2.46
11.191 -0.96 -0.98 -1.06 -0.92 -1.48 -1.99 -1.90 -1.85 -2.41 -2.72 -2.44 -2.44 -2.47 -2.57
11.199 -1.53 -1.54 -1.37 -1.08 -1.47 -1.81 -1.78 -1.68 -1.87 -1.95 -1.83 -1.69 -1.82 -1.80
11.208 -2.02 -1.99 -1.67 -1.33 -1.43 -1.55 -1.60 -1.42 -1.88 -1.79 -1.81 -1.60 -1.68 -1.64
11.216 0.52 0.49 0.87 1.07 1.20 1.06 0.98 1.26 -0.40 -0.37 -0.44 -0.32 -0.14 -0.09
11.224 3.82 3.71 4.09 3.99 4.30 3.90 3.84 4.14 2.30 2.22 2.18 2.13 2.42 2.51
11.233 3.76 3.69 3.94 3.59 4.03 3.29 3.44 3.66 4.87 4.87 4.81 4.76 4.94 5.10
11.241 1.14 1.15 1.29 0.76 1.09 -0.02 0.52 0.76 3.92 4.16 3.98 3.89 4.08 4.25
11.249 -0.53 -0.49 -0.41 -0.93 -0.83 -2.01 -1.27 -0.97 -0.20 0.19 -0.07 -0.29 0.02 0.15
11.258 -0.38 -0.38 -0.45 -0.71 -0.76 -1.45 -0.95 -0.68 -1.50 -1.28 -1.38 -1.54 -1.33 -1.25
11.266 -0.38 -0.40 -0.69 -0.61 -0.77 -0.72 -0.67 -0.44 -0.70 -0.80 -0.63 -0.55 -0.63 -0.57
11.274 -0.30 -0.34 -0.85 -0.50 -0.76 -0.17 -0.43 -0.25 -0.04 -0.30 0.01 0.18 -0.04 -0.01
11.283 1.08 1.02 0.38 0.79 0.50 1.27 0.89 0.98 0.60 0.35 0.49 0.52 0.31 0.26
11.291 0.95 1.02 0.41 0.73 0.57 1.50 1.00 0.92 0.18 0.01 -0.13 -0.18 -0.45 -0.60
11.299 -2.05 -1.84 -2.28 -1.99 -1.94 -0.85 -1.40 -1.67 -0.85 -0.92 -1.19 -1.08 -1.47 -1.59
11.308 -4.04 -3.85 -3.97 -3.76 -3.59 -2.55 -3.02 -3.38 -3.19 -3.13 -3.34 -3.12 -3.47 -3.49
11.316 -3.05 -2.94 -2.76 -2.76 -2.48 -1.58 -1.99 -2.31 -4.10 -3.96 -4.02 -3.85 -4.00 -3.98
11.324 -1.35 -1.29 -0.99 -1.22 -0.85 -0.21 -0.57 -0.82 -1.39 -1.29 -1.33 -1.27 -1.22 -1.18
11.333 -1.10 -1.03 -0.63 -0.93 -0.58 -0.52 -0.60 -0.94 -0.46 -0.38 -0.46 -0.62 -0.36 -0.26
11.341 -0.75 -0.73 -0.22 -0.33 -0.22 -0.79 -0.54 -1.06 -1.25 -1.15 -1.10 -1.38 -0.97 -0.85
11.349 2.61 2.44 2.98 2.98 2.77 1.72 2.15 1.60 0.29 0.32 0.55 0.44 0.74 0.77
11.358 6.60 6.39 6.85 6.71 6.39 5.14 5.65 5.22 3.77 3.69 4.03 4.05 4.15 4.12
11.366 6.91 6.77 6.99 6.82 6.51 5.37 5.99 5.57 6.81 6.70 6.99 6.99 7.00 7.00
11.375 3.45 3.34 3.35 3.36 3.05 2.24 3.03 2.51 5.67 5.57 5.70 5.66 5.70 5.73
11.383 -0.97 -1.05 -1.22 -0.96 -1.29 -1.49 -0.67 -1.23 1.07 1.01 1.17 1.20 1.33 1.36
11.391 -3.19 -3.33 -3.85 -3.43 -3.72 -3.20 -2.73 -3.14 -2.59 -2.75 -2.35 -2.09 -2.08 -1.98
11.400 -3.06 -3.26 -4.00 -3.60 -3.63 -2.63 -2.62 -2.70 -3.86 -4.11 -3.61 -3.19 -3.48 -3.31
11.408 -2.95 -3.07 -3.58 -3.33 -3.06 -2.06 -2.21 -1.92 -2.95 -2.98 -2.80 -2.52 -2.84 -2.72
11.416 -3.35 -3.34 -3.34 -3.41 -3.09 -2.52 -2.56 -2.02 -2.53 -2.19 -2.55 -2.53 -2.62 -2.62
11.424 -2.66 -2.50 -2.18 -2.55 -2.37 -2.24 -2.31 -1.50 -2.94 -2.45 -3.05 -3.24 -3.07 -3.22
11.433 0.04 0.24 0.49 0.06 0.18 0.03 -0.43 0.90 -0.75 -0.45 -0.92 -1.22 -1.03 -1.30
11.441 1.88 2.03 2.11 1.81 1.96 1.62 0.67 2.71 2.71 2.70 2.33 2.02 2.00 1.65
11.449 0.04 0.16 0.21 0.12 0.23 -0.13 -1.40 1.21 3.07 2.90 2.51 2.25 2.12 1.78
11.458 -1.76 -1.71 -1.66 -1.63 -1.62 -1.82 -3.20 -0.49 0.06 -0.19 -0.53 -0.67 -0.84 -1.07
11.466 -0.55 -0.52 -0.42 -0.48 -0.41 -0.41 -1.62 0.25 -1.38 -1.68 -1.84 -1.88 -2.11 -2.20
11.474 0.25 0.34 0.48 0.39 0.52 0.68 0.04 0.10 0.00 -0.27 -0.22 -0.18 -0.34 -0.27
11.482 0.72 0.82 0.84 0.89 0.97 1.16 1.29 -0.62 0.25 -0.00 0.22 0.37 0.38 0.59
11.491 4.19 4.24 4.04 4.22 4.20 4.21 4.89 1.88 1.48 1.32 1.62 1.75 1.94 2.22
11.499 6.81 6.83 6.47 6.64 6.50 6.18 7.10 4.06 4.25 4.29 4.53 4.55 4.76 5.06
11.507 3.54 3.59 3.30 3.39 3.19 2.67 3.64 1.21 2.89 3.06 3.28 3.29 3.41 3.66
11.516 -1.86 -1.84 -1.86 -1.83 -2.05 -2.38 -1.45 -3.14 -1.56 -1.30 -1.01 -0.95 -0.79 -0.72
11.524 -3.13 -3.24 -3.07 -3.07 -3.30 -3.31 -2.41 -3.33 -3.49 -3.22 -3.00 -2.96 -2.74 -2.81
11.532 -1.46 -1.58 -1.33 -1.41 -1.56 -1.49 -0.65 -0.85 -1.37 -1.13 -1.12 -1.12 -1.01 -1.02
11.540 -1.44 -1.47 -1.17 -1.37 -1.42 -1.48 -0.80 -0.59 0.21 0.51 0.31 0.24 0.28 0.33
11.549 -2.10 -2.11 -1.80 -2.03 -2.07 -2.19 -1.77 -1.35 -1.61 -1.31 -1.60 -1.75 -1.71 -1.67
11.557 -1.38 -1.42 -1.22 -1.27 -1.27 -1.21 -1.14 -0.51 -2.14 -2.05 -2.24 -2.29 -2.35 -2.35
11.565 -1.26 -1.29 -1.24 -1.00 -0.91 -0.56 -0.83 0.02 -1.07 -1.25 -1.24 -1.06 -1.38 -1.36
11.574 -1.50 -1.55 -1.58 -1.16 -1.00 -0.47 -0.99 -0.10 -0.92 -1.25 -1.12 -0.82 -1.25 -1.28
11.582 -0.66 -0.85 -0.93 -0.58 -0.43 0.11 -0.53 0.13 -0.18 -0.43 -0.35 -0.25 -0.44 -0.61
11.591 -0.37 -0.57 -0.72 -0.55 -0.38 0.13 -0.51 -0.02 0.31 0.17 0.14 -0.04 0.03 -0.15
11.599 -0.82 -0.78 -0.95 -0.88 -0.65 -0.12 -0.72 -0.19 -0.03 -0.10 -0.10 -0.28 -0.14 -0.21
11.607 -0.62 -0.44 -0.55 -0.57 -0.43 -0.03 -0.56 -0.09 -0.05 0.02 0.04 0.05 0.24 0.18
11.616 1.32 1.42 1.37 1.21 1.18 1.19 0.86 1.15 0.81 0.96 0.89 0.97 1.15 1.12
11.624 4.49 4.49 4.49 4.17 4.12 3.59 3.51 3.69 3.14 3.23 3.08 3.13 3.21 3.26
11.632 4.84 4.88 4.96 4.52 4.50 3.53 3.67 3.83 4.52 4.57 4.42 4.36 4.39 4.51
11.641 1.53 1.61 1.76 1.33 1.28 0.17 0.52 0.70 2.74 2.90 2.78 2.67 2.74 2.91
11.649 -1.18 -1.22 -1.13 -1.45 -1.62 -2.51 -2.11 -2.08 -0.97 -0.75 -0.79 -0.89 -0.69 -0.62
11.658 -0.68 -0.80 -0.91 -1.06 -1.39 -1.85 -1.57 -1.83 -3.15 -3.10 -3.06 -3.20 -2.98 -3.05
11.666 1.11 1.07 0.77 0.87 0.49 0.46 0.57 0.19 -1.24 -1.50 -1.39 -1.56 -1.48 -1.65
11.674 0.74 0.77 0.48 0.75 0.51 0.77 0.72 0.43 1.31 0.84 1.08 0.99 0.85 0.64
11.683 -0.94 -0.94 -1.16 -0.80 -0.76 -0.19 -0.46 -0.58 1.07 0.58 1.03 1.11 0.78 0.62
11.691 -1.65 -1.76 -2.09 -1.59 -1.28 -0.30 -0.92 -0.87 -0.77 -1.26 -0.61 -0.25 -0.77 -0.78
11.699 -1.69 -1.86 -2.28 -1.70 -1.24 -0.24 -0.97 -0.90 -1.86 -2.27 -1.70 -1.18 -1.79 -1.68
11.708 -2.00 -2.08 -2.19 -1.84 -1.47 -1.08 -1.35 -1.45 -1.51 -1.60 -1.55 -1.23 -1.61 -1.49
11.716 -3.12 -3.03 -2.62 -2.73 -2.58 -2.88 -2.46 -2.76 -2.49 -2.18 -2.71 -2.75 -2.75 -2.66
11.724 -2.82 -2.54 -1.86 -2.30 -2.26 -2.74 -2.02 -2.29 -3.29 -2.69 -3.37 -3.67 -3.42 -3.35
11.733 0.01 0.29 0.87 0.39 0.43 0.22 0.77 0.69 -0.44 0.19 -0.31 -0.64 -0.32 -0.26
11.741 2.22 2.29 2.65 2.33 2.28 2.28 2.68 2.66 2.43 2.86 2.48 2.30 2.58 2.60
11.749 2.17 2.10 2.26 2.15 1.91 1.88 2.24 2.22 2.66 2.90 2.59 2.63 2.79 2.80
11.758 1.31 1.25 1.23 1.30 0.96 0.86 1.08 1.14 1.34 1.43 1.35 1.57 1.60 1.65
11.766 1.87 1.93 1.80 1.98 1.71 1.58 1.61 1.63 0.85 0.88 1.04 1.20 1.29 1.35
11.774 2.06 2.17 2.03 2.18 2.08 1.97 1.89 1.70 2.24 2.21 2.43 2.42 2.64 2.66
11.783 -1.02 -0.96 -1.04 -0.91 -0.85 -0.82 -1.03 -1.27 1.28 1.04 1.30 1.24 1.45 1.39
11.791 -3.43 -3.38 -3.43 -3.32 -3.18 -3.08 -3.40 -3.44 -1.99 -2.32 -2.02 -2.04 -1.89 -1.94
11.799 -1.73 -1.64 -1.73 -1.73 -1.61 -1.50 -1.85 -1.72 -3.11 -3.32 -3.12 -3.12 -3.10 -3.00
11.808 1.76 1.80 1.65 1.60 1.71 1.97 1.62 1.70 -1.13 -1.23 -1.18 -1.16 -1.35 -1.18
11.816 3.04 2.89 2.71 2.67 2.79 3.22 2.81 2.72 2.17 2.13 2.11 2.05 1.88 1.93
11.824 1.14 0.87 0.69 0.64 0.81 1.26 0.81 0.68 2.41 2.35 2.24 2.04 2.10 1.96
11.833 -0.29 -0.49 -0.65 -0.68 -0.48 -0.30 -0.52 -0.46 -0.28 -0.33 -0.55 -0.81 -0.61 -0.87
11.841 -0.45 -0.53 -0.55 -0.70 -0.68 -1.07 -0.77 -0.57 -1.44 -1.31 -1.62 -1.84 -1.72 -1.95
11.849 -0.85 -0.84 -0.62 -0.91 -1.12 -1.87 -1.24 -1.05 -1.11 -0.82 -1.07 -1.24 -1.25 -1.34
11.858 -1.03 -0.99 -0.79 -0.96 -1.17 -1.70 -1.24 -1.07 -0.66 -0.48 -0.54 -0.61 -0.72 -0.75
11.866 -1.38 -1.38 -1.43 -1.34 -1.45 -1.44 -1.35 -1.19 -0.94 -1.06 -0.89 -0.75 -1.07 -1.16
11.874 -1.08 -1.14 -1.25 -1.02 -1.17 -0.92 -1.00 -0.83 -1.15 -1.40 -1.05 -0.82 -1.19 -1.29
11.883 0.19 0.02 0.09 0.23 -0.01 -0.13 -0.11 0.01 0.15 0.08 0.41 0.58 0.45 0.49
11.891 1.04 0.79 0.99 1.04 0.85 0.21 0.40 0.55 1.34 1.37 1.58 1.67 1.78 1.94
11.899 1.14 0.93 1.08 1.16 1.02 0.18 0.52 0.71 1.10 1.06 1.13 1.29 1.37 1.56
11.908 0.47 0.42 0.44 0.49 0.27 -0.46 -0.03 0.04 -0.61 -0.59 -0.68 -0.44 -0.53 -0.32
11.916 0.77 0.96 0.90 0.82 0.71 0.33 0.67 0.66 -0.60 -0.45 -0.62 -0.51 -0.48 -0.31
11.924 0.96 1.30 1.20 1.04 1.26 1.34 1.51 1.51 2.03 2.19 2.08 1.94 2.27 2.29
11.933 -0.40 -0.02 -0.09 -0.30 0.12 0.59 0.63 0.53 1.59 1.74 1.68 1.45 1.78 1.68
11.941 0.30 0.66 0.63 0.47 0.87 1.56 1.47 1.20 0.29 0.36 0.26 0.13 0.19 0.11
11.949 0.83 1.04 1.05 1.04 1.38 2.11 1.90 1.57 1.33 1.26 1.07 1.00 0.80 0.77
11.958 -1.68 -1.59 -1.49 -1.45 -1.12 -0.46 -0.79 -1.04 0.32 0.23 0.04 0.02 -0.26 -0.30
11.966 -2.97 -2.93 -2.83 -2.81 -2.61 -2.04 -2.57 -2.74 -1.45 -1.47 -1.54 -1.41 -1.61 -1.71
11.974 -2.24 -2.29 -2.39 -2.29 -2.28 -1.85 -2.45 -2.70 -2.02 -2.02 -1.99 -1.80 -1.92 -1.97
11.983 -0.54 -0.75 -1.02 -0.78 -0.85 -0.37 -0.96 -1.27 -1.98 -2.12 -1.96 -1.83 -1.86 -1.74
11.991 1.80 1.48 1.16 1.53 1.45 2.51 1.67 1.40 -0.31 -0.75 -0.27 -0.11 -0.16 0.07
11.999 3.03 2.77 2.54 2.95 2.80 4.30 3.34 3.17 1.85 1.28 1.92 2.19 2.03 2.18
12.008 2.03 1.91 1.99 2.18 2.02 2.87 2.43 2.52 2.77 2.48 2.80 3.00 2.97 2.96
12.016 -1.40 -1.39 -0.94 -1.17 -1.21 -1.78 -1.42 -1.02 -0.27 -0.02 -0.28 -0.36 -0.11 -0.22
12.024 -3.58 -3.45 -2.91 -3.33 -3.28 -4.81 -4.05 -3.56 -4.79 -4.21 -4.84 -5.15 -4.75 -4.92
12.033 -1.99 -1.83 -1.61 -1.81 -1.80 -3.33 -2.64 -2.24 -3.75 -3.32 -3.83 -4.25 -3.91 -4.08
12.041 -0.20 -0.15 -0.25 -0.23 -0.38 -1.51 -0.87 -0.61 -0.39 -0.28 -0.46 -0.83 -0.68 -0.80
12.049 0.80 0.68 0.54 0.48 0.22 -0.61 0.10 0.26 0.78 0.76 0.76 0.61 0.64 0.61
12.058 1.77 1.59 1.47 1.32 1.08 0.51 1.12 1.19 1.95 1.90 1.94 2.03 2.00 2.05
12.066 1.78 1.67 1.59 1.55 1.32 0.98 1.33 1.30 2.38 2.32 2.43 2.53 2.41 2.47
12.074 2.30 2.25 2.23 2.36 2.11 1.88 1.99 1.95 2.13 2.09 2.34 2.25 2.05 2.07
12.083 3.60 3.55 3.58 3.73 3.57 3.44 3.39 3.38 3.03 3.03 3.31 3.14 2.93 2.85
12.091 3.23 3.24 3.23 3.33 3.41 3.33 3.31 3.29 3.31 3.38 3.54 3.50 3.39 3.29
12.099 0.23 0.33 0.14 0.21 0.49 0.45 0.45 0.37 1.48 1.51 1.61 1.77 1.71 1.73
12.108 -3.80 -3.60 -3.97 -3.88 -3.68 -3.49 -3.63 -3.80 -2.10 -2.18 -2.10 -1.80 -2.04 -1.85
12.116 -4.71 -4.45 -4.84 -4.82 -4.80 -4.34 -4.60 -4.86 -4.78 -4.93 -4.99 -4.68 -5.02 -4.77
12.124 -1.95 -1.78 -2.02 -2.25 -2.29 -1.64 -1.99 -2.21 -3.52 -3.68 -3.85 -3.70 -3.84 -3.69
12.133 -0.05 0.03 -0.05 -0.41 -0.41 0.24 -0.03 -0.10 -0.45 -0.44 -0.61 -0.68 -0.48 -0.45
12.141 -0.14 -0.12 -0.08 -0.35 -0.27 -0.03 0.04 0.06 0.47 0.78 0.48 0.29 0.78 0.75
12.149 -0.13 -0.19 -0.06 -0.20 -0.07 -0.25 0.05 0.04 -0.33 0.05 -0.39 -0.56 -0.07 -0.13
12.158 0.23 0.14 0.31 0.31 0.42 0.38 0.52 0.52 -0.32 -0.12 -0.37 -0.43 -0.15 -0.25
12.166 -0.43 -0.56 -0.34 -0.19 -0.06 0.36 0.15 0.23 -0.07 -0.08 0.05 0.11 0.15 0.01
12.174 -0.90 -1.00 -0.64 -0.36 -0.17 0.49 0.14 0.27 -0.60 -0.72 -0.39 -0.18 -0.29 -0.44
12.183 0.82 0.78 1.39 1.56 1.69 2.13 1.91 2.05 0.55 0.39 0.68 0.94 0.77 0.68
12.191 1.28 1.12 2.01 1.86 1.79 1.81 1.68 1.79 2.58 2.36 2.52 2.69 2.48 2.49
12.199 -0.49 -0.74 0.17 -0.14 -0.33 -0.58 -0.69 -0.61 1.55 1.37 1.45 1.43 1.28 1.40
12.208 -0.87 -1.11 -0.61 -0.83 -0.94 -1.36 -1.38 -1.35 -1.25 -1.31 -1.37 -1.55 -1.55 -1.46
12.216 0.22 0.07 -0.06 -0.01 0.02 -0.36 -0.34 -0.34 -1.53 -1.51 -1.72 -1.95 -1.89 -1.94
12.224 1.20 1.28 0.67 0.91 1.02 0.81 0.91 0.81 0.97 1.02 0.79 0.58 0.69 0.65
12.233 -0.03 0.25 -0.51 -0.33 -0.20 -0.36 -0.17 -0.41 1.32 1.38 1.21 1.05 1.18 1.22
12.241 -1.86 -1.48 -2.29 -2.20 -2.10 -2.14 -1.96 -2.20 -1.52 -1.49 -1.46 -1.60 -1.56 -1.53
12.249 -0.70 -0.43 -1.24 -1.15 -1.12 -0.98 -0.94 -1.03 -2.50 -2.45 -2.28 -2.50 -2.52 -2.52
12.258 1.57 1.63 1.11 1.15 1.13 1.32 1.22 1.22 -0.46 -0.38 -0.31 -0.57 -0.57 -0.60
12.266 2.67 2.61 2.46 2.48 2.46 2.70 2.56 2.58 2.11 2.11 2.13 1.99 2.02 1.97
12.274 1.36 1.29 1.26 1.40 1.36 1.60 1.45 1.55 2.65 2.49 2.66 2.72 2.70 2.66
12.283 0.40 0.42 0.26 0.63 0.51 0.76 0.46 0.65 0.78 0.49 0.84 1.12 0.97 0.95
12.291 2.85 2.99 2.65 3.21 3.05 3.41 2.87 3.05 0.53 0.13 0.62 1.17 0.74 0.73
12.300 2.98 3.13 2.85 3.36 3.24 3.46 2.95 3.02 2.22 1.85 2.27 2.98 2.33 2.27
12.308 -1.16 -1.14 -1.04 -0.93 -1.00 -1.48 -1.38 -1.41 1.76 1.67 1.80 2.24 1.82 1.83
12.316 -4.09 -4.23 -3.63 -4.08 -4.19 -5.46 -4.56 -4.62 -1.12 -0.87 -1.08 -1.16 -1.01 -0.77
12.325 -3.21 -3.41 -2.52 -3.29 -3.50 -4.95 -3.75 -3.81 -3.12 -2.68 -3.14 -3.45 -2.97 -2.62
12.333 -0.27 -0.48 0.27 -0.38 -0.62 -1.55 -0.71 -0.78 -2.12 -1.77 -2.26 -2.41 -2.03 -1.84
12.341 0.33 0.16 0.61 0.21 0.01 -0.29 0.09 0.09 -0.45 -0.23 -0.67 -0.66 -0.47 -0.52
12.350 -2.30 -2.43 -2.14 -2.41 -2.61 -2.41 -2.23 -2.14 -1.20 -0.99 -1.32 -1.34 -1.15 -1.29
12.358 -4.34 -4.42 -4.35 -4.45 -4.64 -3.89 -3.91 -3.79 -3.52 -3.36 -3.40 -3.45 -3.23 -3.34
12.366 -3.29 -3.25 -3.52 -3.40 -3.39 -2.24 -2.62 -2.57 -4.15 -4.05 -3.88 -3.92 -3.70 -3.87
12.375 0.32 0.44 -0.05 0.19 0.51 1.66 0.93 0.81 -1.59 -1.48 -1.36 -1.42 -1.27 -1.51
12.383 4.42 4.53 4.06 4.26 4.78 5.73 4.85 4.72 2.36 2.42 2.42 2.31 2.32 2.13
12.391 6.47 6.54 6.23 6.30 6.81 7.53 6.78 6.76 5.65 5.60 5.60 5.41 5.33 5.25
12.400 4.74 4.78 4.56 4.61 5.05 5.47 4.94 4.97 6.27 6.01 6.16 5.90 5.73 5.75
12.408 0.52 0.61 0.43 0.67 0.99 1.05 0.74 0.75 3.34 2.91 3.19 2.97 2.74 2.82
12.416 -3.35 -3.23 -3.28 -2.91 -2.83 -3.15 -3.22 -3.23 -0.71 -1.02 -0.82 -0.92 -1.09 -1.02
12.425 -4.21 -4.20 -4.04 -3.75 -3.84 -4.44 -4.35 -4.25 -3.63 -3.71 -3.74 -3.77 -3.88 -3.83
12.433 -1.83 -1.89 -1.54 -1.51 -1.62 -2.36 -2.08 -1.84 -3.44 -3.32 -3.57 -3.61 -3.63 -3.58
12.441 0.61 0.52 0.90 0.61 0.49 -0.43 0.15 0.33 -0.58 -0.36 -0.69 -0.79 -0.65 -0.60
12.450 1.67 1.56 1.84 1.43 1.24 0.31 1.06 1.08 1.04 1.20 0.94 0.85 1.03 1.08
12.458 1.57 1.50 1.65 1.35 1.17 0.62 1.13 1.10 0.97 0.99 0.92 0.95 1.01 1.04
12.466 1.08 1.06 1.10 1.00 0.87 0.86 0.89 0.90 0.75 0.60 0.80 1.01 0.86 0.88
12.475 1.36 1.43 1.36 1.36 1.28 1.60 1.41 1.35 1.00 0.71 1.14 1.48 1.22 1.19
12.483 0.22 0.27 0.18 0.16 0.10 0.46 0.42 0.15 0.72 0.49 0.90 1.23 1.03 0.93
12.491 -2.29 -2.33 -2.40 -2.40 -2.42 -2.04 -1.90 -2.31 -1.48 -1.52 -1.31 -1.07 -1.14 -1.18
12.499 -2.60 -2.62 -2.73 -2.64 -2.67 -2.27 -2.08 -2.42 -2.61 -2.42 -2.42 -2.25 -2.16 -2.04
12.508 -0.16 -0.13 -0.33 -0.23 -0.32 -0.07 0.09 -0.06 -0.92 -0.64 -0.84 -0.71 -0.54 -0.40
12.516 2.80 2.85 2.67 2.78 2.67 2.78 2.97 2.96 1.70 1.88 1.54 1.63 1.76 1.76
12.524 2.00 2.12 2.05 2.16 2.06 2.19 2.51 2.44 2.96 3.07 2.76 2.75 2.92 2.77
12.533 -2.31 -2.13 -2.17 -2.05 -2.16 -2.14 -1.70 -1.89 0.53 0.62 0.46 0.30 0.50 0.42
12.541 -4.01 -3.92 -3.98 -3.90 -3.99 -4.27 -3.90 -4.14 -2.81 -2.75 -2.83 -3.11 -2.99 -2.87
12.549 -2.23 -2.27 -2.29 -2.31 -2.36 -2.84 -2.76 -2.86 -3.48 -3.42 -3.57 -3.85 -3.86 -3.66
12.558 -0.19 -0.22 -0.19 -0.22 -0.19 -0.58 -0.77 -0.58 -2.04 -1.94 -2.13 -2.33 -2.39 -2.26
12.566 0.31 0.45 0.41 0.43 0.60 0.61 0.01 0.48 0.02 0.01 0.04 -0.07 -0.13 -0.05
12.574 0.06 0.33 0.19 0.21 0.47 0.88 -0.18 0.42 0.41 0.14 0.46 0.41 0.28 0.30
12.582 1.25 1.40 1.29 1.35 1.58 2.20 0.86 1.50 0.43 0.07 0.55 0.60 0.41 0.25
12.591 2.34 2.13 2.06 2.35 2.53 3.19 1.45 2.24 1.65 1.34 2.02 2.19 1.95 1.68
12.599 1.98 1.45 1.38 1.80 1.93 2.36 0.45 1.31 1.61 1.32 2.07 2.30 2.04 1.81
12.607 2.16 1.54 1.60 1.67 1.65 1.52 0.61 1.02 1.11 0.97 1.33 1.48 1.39 1.26
12.616 1.69 1.25 1.65 1.15 1.07 0.29 1.18 0.85 1.22 1.37 0.98 0.96 1.14 1.05
12.624 -0.02 -0.12 0.51 -0.10 -0.12 -1.06 1.03 0.28 0.75 1.08 0.25 0.12 0.41 0.36
12.632 -0.24 -0.11 0.30 0.04 -0.02 -0.52 1.38 0.69 0.85 1.14 0.53 0.40 0.57 0.64
12.641 -0.38 -0.12 -0.15 -0.12 -0.35 -0.37 0.77 0.28 0.98 1.10 0.84 0.75 0.72 0.88
12.649 -1.66 -1.41 -1.62 -1.62 -1.86 -1.67 -0.90 -1.32 -0.56 -0.50 -0.66 -0.70 -0.75 -0.62
12.657 -2.02 -1.89 -2.11 -2.21 -2.24 -1.98 -1.43 -1.85 -1.97 -1.89 -1.99 -2.00 -1.91 -1.86
12.666 -0.62 -0.52 -0.80 -0.80 -0.63 -0.36 -0.05 -0.43 -1.64 -1.54 -1.53 -1.56 -1.38 -1.36
12.674 1.79 1.91 1.51 1.70 1.87 2.21 2.30 2.04 0.29 0.41 0.52 0.53 0.66 0.77
12.682 1.35 1.45 1.12 1.37 1.43 1.94 1.72 1.62 1.82 1.84 1.98 2.09 1.99 2.19
12.691 -1.84 -1.74 -1.76 -1.65 -1.63 -1.04 -1.50 -1.44 0.69 0.55 0.71 0.89 0.62 0.72
12.699 -3.61 -3.53 -3.31 -3.33 -3.33 -2.85 -3.39 -3.19 -1.69 -1.91 -1.64 -1.50 -1.74 -1.79
12.707 -3.54 -3.47 -3.22 -3.23 -3.24 -2.92 -3.40 -3.18 -3.36 -3.59 -3.35 -3.29 -3.48 -3.58
12.716 -0.61 -0.55 -0.38 -0.36 -0.39 -0.16 -0.50 -0.37 -2.47 -2.57 -2.56 -2.52 -2.63 -2.72
12.724 2.65 2.66 2.73 2.72 2.71 2.74 2.49 2.62 1.31 1.33 1.25 1.21 1.31 1.21
12.732 2.25 2.32 2.36 2.35 2.42 2.03 1.87 2.06 3.43 3.45 3.38 3.17 3.50 3.34
12.741 1.60 1.67 1.75 1.62 1.68 0.80 0.85 1.01 2.11 2.23 1.96 1.67 2.08 1.97
12.749 1.72 1.62 1.76 1.45 1.41 0.33 0.52 0.59 0.38 0.58 0.13 -0.12 0.18 0.18
12.757 0.88 0.71 0.76 0.55 0.49 -0.36 -0.27 -0.19 -0.43 -0.35 -0.57 -0.69 -0.57 -0.54
12.766 0.24 0.08 -0.10 -0.02 -0.02 -0.55 -0.68 -0.50 -0.72 -0.83 -0.63 -0.55 -0.62 -0.59
12.774 0.98 0.81 0.53 0.75 0.74 0.37 0.15 0.31 -0.14 -0.37 0.01 0.19 -0.05 -0.02
12.782 1.49 1.31 1.20 1.30 1.20 0.84 0.68 0.76 0.46 0.33 0.52 0.74 0.43 0.51
12.791 -1.01 -1.16 -1.07 -0.99 -1.14 -1.47 -1.54 -1.44 -1.13 -1.10 -1.12 -0.92 -1.12 -0.98
12.799 -3.41 -3.37 -3.26 -2.96 -3.04 -3.08 -3.07 -2.95 -2.37 -2.25 -2.36 -2.28 -2.25 -2.14
12.807 -2.34 -2.11 -2.07 -1.76 -1.73 -1.43 -1.31 -1.26 -0.46 -0.29 -0.48 -0.52 -0.35 -0.27
12.816 -0.44 -0.15 -0.18 -0.12 -0.02 0.40 0.58 0.56 0.65 0.85 0.71 0.63 0.70 0.79
12.824 0.60 0.79 0.77 0.63 0.68 1.06 1.25 1.20 -0.55 -0.32 -0.29 -0.32 -0.38 -0.35
12.832 0.65 0.62 0.73 0.46 0.36 0.72 0.95 0.85 -0.60 -0.40 -0.26 -0.25 -0.28 -0.38
12.841 -0.54 -0.70 -0.47 -0.75 -0.97 -0.50 -0.24 -0.45 0.69 0.75 0.93 0.89 0.99 0.78
12.849 -2.41 -2.57 -2.39 -2.59 -2.89 -2.34 -2.06 -2.33 -0.06 -0.15 -0.02 -0.07 0.10 -0.12
12.857 -2.50 -2.73 -2.73 -2.80 -3.07 -2.63 -2.36 -2.59 -2.68 -2.83 -2.83 -2.94 -2.81 -2.97
12.866 0.33 0.04 -0.17 -0.10 -0.08 0.35 0.45 0.28 -2.24 -2.43 -2.45 -2.61 -2.66 -2.74
12.874 3.20 3.01 2.68 2.76 3.16 3.62 3.42 3.29 1.51 1.35 1.42 1.37 1.09 1.11
12.882 5.13 5.25 4.88 5.03 5.60 6.09 5.61 5.59 4.31 4.17 4.34 4.46 4.07 4.24
12.891 5.01 5.48 5.13 5.51 6.04 6.97 6.26 6.36 5.08 4.82 5.13 5.41 5.03 5.31
12.899 1.33 1.80 1.64 2.02 2.49 3.67 2.91 3.05 4.38 4.02 4.35 4.66 4.32 4.52
12.907 -2.30 -2.15 -1.98 -1.95 -1.64 -1.19 -1.65 -1.56 2.77 2.57 2.64 2.78 2.67 2.61
12.916 -3.90 -3.96 -3.59 -3.94 -3.94 -4.76 -4.70 -4.61 0.24 0.32 0.03 0.01 0.28 0.08
12.924 -4.10 -4.16 -3.84 -4.31 -4.57 -6.20 -5.75 -5.63 -3.54 -3.31 -3.77 -3.84 -3.41 -3.46
12.932 -2.78 -2.83 -2.76 -3.06 -3.36 -4.74 -4.31 -4.22 -5.66 -5.49 -5.79 -5.94 -5.54 -5.44
12.941 -0.95 -1.12 -1.26 -1.44 -1.69 -2.41 -2.19 -2.25 -4.53 -4.41 -4.57 -4.86 -4.46 -4.43
12.949 1.66 1.46 1.25 1.15 0.88 0.43 0.55 0.35 -2.09 -1.95 -2.15 -2.47 -2.13 -2.19
12.957 4.46 4.39 4.26 4.35 3.98 3.62 3.69 3.48 1.15 1.24 1.09 0.95 1.02 1.01
12.966 4.92 4.89 4.96 5.15 4.76 4.42 4.47 4.35 3.90 3.85 3.82 3.85 3.62 3.62
12.974 2.56 2.52 2.76 2.98 2.73 2.44 2.56 2.52 3.69 3.53 3.58 3.71 3.36 3.27
12.982 -1.58 -1.61 -1.34 -1.01 -1.07 -1.17 -1.00 -0.96 0.60 0.48 0.64 0.91 0.54 0.41
12.991 -3.86 -3.90 -3.69 -3.28 -3.27 -3.23 -3.09 -2.92 -2.68 -2.64 -2.42 -2.11 -2.43 -2.45
12.999 -3.03 -3.09 -2.95 -2.58 -2.60 -2.34 -2.33 -2.04 -2.66 -2.54 -2.32 -2.13 -2.25 -2.15
13.008 -3.69 -3.72 -3.59 -3.44 -3.44 -2.94 -3.01 -2.81 -2.55 -2.39 -2.26 -2.21 -2.11 -1.95
13.016 -4.47 -4.34 -4.18 -4.28 -4.21 -3.74 -3.70 -3.71 -5.02 -4.74 -4.74 -4.80 -4.61 -4.50
13.024 -1.01 -0.78 -0.70 -0.89 -0.84 -0.38 -0.28 -0.35 -3.34 -2.96 -3.03 -3.18 -2.92 -2.89
13.033 2.83 2.94 2.83 2.62 2.61 3.10 3.11 3.11 1.37 1.70 1.55 1.35 1.69 1.66
13.041 3.42 3.43 3.26 2.93 3.01 3.12 3.17 3.22 2.93 3.09 2.85 2.64 2.96 2.86
13.049 2.58 2.57 2.47 2.06 2.31 1.97 2.07 2.13 3.60 3.58 3.32 3.13 3.31 3.22
13.058 2.22 2.21 2.05 1.73 2.11 1.87 1.84 1.89 4.47 4.30 4.20 4.11 4.08 4.03
13.066 2.48 2.45 2.05 1.92 2.39 2.62 2.35 2.41 4.87 4.51 4.70 4.80 4.53 4.48
13.074 2.44 2.40 1.91 1.81 2.44 2.73 2.40 2.38 4.10 3.59 3.95 4.13 3.68 3.63
13.083 1.17 1.23 0.94 0.79 1.45 1.37 1.19 1.11 1.51 1.03 1.36 1.42 0.97 1.04
13.091 -1.91 -1.73 -1.83 -1.87 -1.64 -1.81 -1.92 -1.92 -1.11 -1.39 -1.21 -1.32 -1.49 -1.28
13.099 -4.87 -4.64 -4.70 -4.52 -4.94 -4.97 -5.01 -4.96 -4.47 -4.52 -4.53 -4.65 -4.45 -4.24
13.108 -4.08 -3.93 -3.92 -3.66 -4.44 -4.63 -4.39 -4.41 -6.19 -6.06 -6.25 -6.18 -5.88 -5.80
13.116 -0.99 -1.13 -0.96 -0.82 -1.56 -1.98 -1.55 -1.72 -3.27 -3.09 -3.30 -3.16 -2.99 -2.99
13.124 -0.39 -0.74 -0.37 -0.43 -0.89 -1.25 -0.88 -1.17 -1.19 -1.02 -1.12 -1.05 -1.00 -1.02
13.133 -1.29 -1.62 -1.17 -1.31 -1.51 -1.64 -1.49 -1.69 -1.73 -1.57 -1.61 -1.53 -1.52 -1.61
13.141 0.67 0.48 0.90 0.88 0.73 0.88 0.84 0.76 -0.81 -0.68 -0.76 -0.70 -0.67 -0.78
13.149 4.47 4.45 4.82 4.94 4.73 5.11 4.96 4.91 2.18 2.29 2.22 2.07 2.18 2.13
13.158 5.38 5.46 5.72 5.91 5.64 6.02 5.76 5.67 5.11 5.16 5.14 4.80 4.97 4.89
13.166 1.88 1.93 2.01 2.26 2.13 2.38 2.04 1.93 4.27 4.28 4.26 4.07 4.08 3.96
13.174 -2.13 -2.18 -2.30 -2.08 -1.89 -1.80 -2.12 -2.09 -0.02 0.02 0.01 0.24 -0.05 -0.24
13.183 -1.93 -2.04 -2.28 -2.15 -1.67 -1.58 -1.87 -1.72 -1.71 -1.72 -1.61 -1.16 -1.58 -1.84
13.191 -0.15 -0.26 -0.53 -0.26 0.41 0.98 0.53 0.69 -0.24 -0.49 -0.13 0.31 -0.08 -0.29
13.199 -1.06 -1.13 -1.45 -0.97 -0.31 0.71 0.17 0.30 -0.29 -0.78 -0.30 0.07 -0.29 -0.29
13.208 -1.36 -1.38 -1.66 -1.28 -0.94 -0.29 -0.45 -0.30 -0.78 -1.16 -0.91 -0.77 -0.96 -0.71
13.216 0.31 0.40 0.24 0.20 0.22 -0.14 0.32 0.48 0.91 1.02 0.85 0.62 0.79 1.13
13.224 0.39 0.70 0.54 0.16 0.07 -0.97 -0.19 -0.11 1.55 2.02 1.61 1.10 1.61 1.84
13.233 -1.41 -0.99 -1.16 -1.58 -1.68 -2.57 -1.93 -1.85 -0.92 -0.46 -0.73 -1.22 -0.70 -0.52
13.241 -2.45 -2.16 -2.20 -2.61 -2.80 -3.33 -2.95 -2.76 -3.11 -2.86 -2.91 -3.13 -2.91 -2.74
13.249 -1.01 -0.97 -0.83 -1.19 -1.59 -2.01 -1.82 -1.63 -2.05 -2.03 -1.99 -1.97 -2.01 -1.92
13.258 0.69 0.58 0.77 0.58 0.18 -0.14 -0.16 -0.16 0.04 -0.12 -0.02 0.09 0.01 0.01
13.266 1.66 1.53 1.63 1.51 1.33 1.16 1.01 0.79 0.60 0.36 0.44 0.54 0.60 0.57
13.274 2.97 2.80 2.83 2.65 2.61 2.53 2.39 2.10 1.57 1.40 1.40 1.41 1.63 1.55
13.283 1.31 1.08 1.12 0.94 0.95 0.98 0.87 0.66 1.50 1.51 1.42 1.39 1.52 1.41
13.291 -2.71 -2.80 -2.78 -2.79 -2.75 -2.52 -2.58 -2.69 -1.96 -1.81 -1.96 -1.92 -1.94 -2.02
13.299 -2.66 -2.55 -2.57 -2.36 -2.29 -1.86 -1.93 -2.04 -3.54 -3.41 -3.54 -3.42 -3.53 -3.54
13.308 1.17 1.37 1.35 1.62 1.78 2.27 2.10 2.02 -0.43 -0.47 -0.55 -0.38 -0.58 -0.60
13.316 2.51 2.67 2.76 2.83 3.05 3.41 3.22 3.31 3.00 2.86 2.85 2.99 2.75 2.60
13.324 -0.40 -0.44 -0.17 -0.30 -0.09 -0.00 -0.06 0.12 2.22 2.17 2.21 2.22 1.96 1.73
13.333 -1.68 -1.83 -1.46 -1.57 -1.49 -1.62 -1.42 -1.31 -1.19 -1.11 -1.14 -1.27 -1.38 -1.57
13.341 0.75 0.69 0.98 0.92 0.80 0.37 0.82 0.85 -1.18 -1.04 -1.22 -1.50 -1.25 -1.31
13.349 1.58 1.59 1.72 1.63 1.43 0.74 1.17 1.20 1.16 1.29 1.00 0.68 1.04 1.08
13.358 0.50 0.48 0.50 0.52 0.35 -0.09 0.08 0.10 1.75 1.75 1.63 1.48 1.59 1.66
13.366 0.61 0.54 0.45 0.72 0.52 0.68 0.51 0.47 1.58 1.37 1.64 1.68 1.53 1.57
13.374 1.52 1.45 1.23 1.63 1.43 1.93 1.55 1.51 1.29 1.00 1.46 1.63 1.32 1.38
13.383 1.88 1.84 1.52 1.79 1.74 2.05 1.65 1.62 1.34 1.21 1.56 1.71 1.43 1.55
13.391 0.27 0.17 -0.08 -0.05 0.06 0.04 -0.24 -0.35 0.92 0.98 1.09 1.22 0.98 1.16
13.399 -3.31 -3.40 -3.55 -3.56 -3.46 -3.51 -3.52 -3.66 -1.80 -1.64 -1.62 -1.42 -1.58 -1.37
13.408 -4.98 -5.00 -5.20 -5.17 -5.20 -5.25 -5.03 -5.10 -4.74 -4.59 -4.42 -4.25 -4.22 -4.03
13.416 -1.41 -1.36 -1.60 -1.61 -1.67 -1.65 -1.48 -1.43 -4.50 -4.34 -4.13 -4.06 -3.83 -3.73
13.424 2.91 3.06 2.93 2.85 2.98 3.32 3.35 3.51 0.37 0.54 0.54 0.56 1.01 1.01
13.433 1.63 1.80 1.84 1.63 1.95 2.54 2.46 2.58 4.18 4.30 4.03 3.95 4.49 4.40
13.441 -1.98 -1.94 -1.80 -2.09 -1.72 -1.10 -1.28 -1.35 1.64 1.66 1.31 1.13 1.42 1.26
13.449 -2.23 -2.31 -2.16 -2.42 -2.06 -1.61 -1.82 -2.04 -1.61 -1.69 -2.01 -2.21 -2.17 -2.40
13.458 0.34 0.29 0.44 0.24 0.52 0.70 0.53 0.39 -1.43 -1.58 -1.92 -2.13 -2.13 -2.43
13.466 2.50 2.56 2.73 2.71 2.83 2.88 2.77 2.85 0.72 0.52 0.25 0.10 0.15 -0.14
13.474 1.61 1.65 1.87 2.06 1.99 1.94 1.88 2.09 2.40 2.18 2.13 2.17 2.12 2.00
13.483 -1.22 -1.24 -1.09 -0.74 -1.00 -1.20 -1.23 -1.03 0.27 0.15 0.36 0.68 0.26 0.38
13.491 -2.94 -2.93 -3.10 -2.53 -2.90 -3.19 -3.25 -3.14 -2.57 -2.58 -2.08 -1.59 -2.29 -2.07
13.500 -2.25 -2.27 -2.69 -2.05 -2.43 -2.85 -2.91 -2.83 -2.45 -2.49 -1.86 -1.52 -2.09 -1.86
13.508 1.69 1.59 1.28 1.58 1.26 0.50 0.67 0.81 -0.83 -0.89 -0.51 -0.48 -0.69 -0.36
13.516 6.02 5.95 5.98 5.70 5.52 4.30 4.81 4.95 2.36 2.41 2.30 2.11 2.22 2.58
13.524 5.72 5.81 6.04 5.37 5.33 4.06 4.65 4.70 4.64 4.75 4.31 4.01 4.30 4.38
13.533 0.69 0.82 1.03 0.39 0.42 -0.20 0.20 0.07 2.80 2.90 2.50 2.18 2.62 2.36
13.541 -4.31 -4.34 -4.14 -4.58 -4.55 -4.38 -4.17 -4.40 -1.24 -1.16 -1.34 -1.64 -1.16 -1.47
13.549 -4.22 -4.39 -4.09 -4.30 -4.31 -3.74 -3.64 -3.81 -3.91 -3.84 -3.85 -4.10 -3.83 -4.00
13.558 -1.36 -1.50 -1.17 -1.09 -1.19 -0.46 -0.53 -0.59 -2.64 -2.58 -2.51 -2.53 -2.54 -2.61
13.566 -0.58 -0.62 -0.38 -0.14 -0.31 0.52 0.25 0.24 -0.45 -0.45 -0.33 -0.10 -0.26 -0.30
13.574 0.33 0.49 0.41 0.63 0.47 1.28 0.91 0.81 0.00 -0.06 0.11 0.36 0.16 0.11
13.583 1.14 1.48 1.01 1.17 1.13 1.86 1.46 1.24 1.13 1.09 1.26 1.39 1.19 1.11
13.591 -0.29 0.01 -0.54 -0.36 -0.10 0.49 0.06 -0.08 1.49 1.44 1.58 1.69 1.46 1.44
13.599 -0.78 -0.61 -0.94 -0.74 -0.21 0.10 -0.27 -0.29 0.08 0.03 0.13 0.37 0.16 0.27
13.608 0.85 0.92 0.77 0.86 1.41 1.39 1.11 1.13 0.12 0.08 0.13 0.36 0.27 0.38
13.616 3.29 3.23 3.11 3.05 3.43 3.16 2.98 3.03 2.34 2.31 2.19 2.24 2.30 2.29
13.624 3.40 3.10 3.05 2.96 3.14 2.69 2.70 2.83 3.93 4.02 3.75 3.63 3.77 3.73
13.633 -0.79 -1.27 -1.16 -1.14 -1.18 -1.70 -1.45 -1.20 1.37 1.52 1.23 1.06 1.16 1.19
13.641 -3.74 -4.09 -3.76 -3.82 -4.03 -4.57 -4.04 -3.84 -3.03 -2.86 -3.18 -3.40 -3.18 -3.12
13.649 -3.00 -3.08 -2.63 -2.94 -3.24 -3.73 -3.07 -3.05 -4.10 -3.89 -4.22 -4.53 -4.11 -4.04
13.658 -2.35 -2.33 -1.99 -2.22 -2.51 -2.72 -2.24 -2.26 -3.17 -3.07 -3.20 -3.44 -3.14 -3.06
13.666 -2.90 -2.88 -2.79 -2.67 -2.92 -2.73 -2.54 -2.53 -3.18 -3.30 -3.07 -3.12 -3.14 -3.06
13.674 -2.54 -2.42 -2.48 -2.25 -2.46 -1.97 -1.98 -2.04 -3.18 -3.48 -3.04 -2.97 -3.11 -3.07
13.683 1.15 1.41 1.36 1.48 1.38 1.85 1.76 1.64 -0.52 -0.75 -0.46 -0.44 -0.37 -0.40
13.691 4.87 5.10 5.00 5.03 5.01 5.05 4.91 4.80 3.50 3.54 3.52 3.45 3.65 3.58
13.699 4.47 4.51 4.23 4.23 4.23 3.82 3.62 3.59 4.40 4.57 4.40 4.40 4.32 4.23
13.708 3.06 3.00 2.67 2.57 2.66 2.05 1.88 1.87 3.15 3.20 3.14 3.29 2.88 2.86
13.716 2.55 2.48 2.29 2.09 2.27 1.69 1.59 1.54 2.37 2.26 2.38 2.55 2.09 2.15
13.724 1.68 1.59 1.62 1.43 1.56 1.32 1.22 1.23 1.78 1.62 1.81 1.88 1.61 1.66
13.733 -0.16 -0.20 -0.02 -0.21 -0.24 -0.05 -0.13 -0.01 1.04 1.04 1.16 1.17 1.18 1.15
13.741 -2.58 -2.53 -2.36 -2.56 -2.57 -2.17 -2.19 -2.08 -0.94 -0.78 -0.80 -0.71 -0.56 -0.61
13.749 -3.22 -3.11 -3.02 -3.04 -2.88 -2.56 -2.54 -2.53 -2.69 -2.46 -2.63 -2.47 -2.25 -2.22
13.758 -3.13 -3.02 -2.92 -2.72 -2.59 -2.53 -2.51 -2.55 -2.93 -2.69 -2.91 -2.85 -2.57 -2.52
13.766 -3.18 -3.03 -2.93 -2.57 -2.63 -2.61 -2.68 -2.61 -3.25 -3.16 -3.25 -3.23 -3.04 -3.12
13.774 -0.58 -0.40 -0.41 0.00 -0.13 0.10 -0.05 0.13 -1.55 -1.62 -1.56 -1.49 -1.40 -1.65
13.783 1.88 1.96 1.85 2.26 2.16 2.71 2.49 2.66 1.64 1.46 1.58 1.69 1.61 1.34
13.791 0.90 0.81 0.65 1.11 1.08 2.06 1.69 1.76 1.79 1.36 1.71 1.89 1.46 1.33
13.799 -1.86 -2.00 -2.10 -1.71 -1.66 -0.56 -1.00 -1.06 -0.09 -0.79 -0.18 0.04 -0.59 -0.60
13.808 -2.57 -2.69 -2.66 -2.57 -2.49 -2.07 -2.18 -2.31 -0.68 -1.27 -0.84 -0.77 -1.24 -1.16
13.816 1.01 0.81 0.94 0.67 0.63 -0.04 0.41 0.29 0.85 0.78 0.66 0.34 0.35 0.50
13.824 4.14 3.86 3.99 3.51 3.30 1.97 2.72 2.61 2.23 2.72 2.18 1.53 2.00 2.20
13.833 3.67 3.45 3.42 2.95 2.71 1.46 2.08 1.97 1.94 2.59 2.01 1.46 2.03 2.22
13.841 1.43 1.28 1.13 0.70 0.58 -0.29 0.03 -0.13 0.87 1.34 0.88 0.74 1.08 1.22
13.849 -1.74 -1.85 -1.86 -2.22 -2.11 -2.62 -2.47 -2.64 -1.58 -1.32 -1.64 -1.48 -1.43 -1.31
13.858 -3.18 -3.28 -3.10 -3.25 -2.91 -2.88 -2.87 -2.97 -3.89 -3.86 -3.91 -3.76 -3.81 -3.67
13.866 -1.86 -1.83 -1.69 -1.65 -1.32 -0.70 -0.97 -0.93 -2.96 -3.09 -2.89 -2.95 -2.88 -2.78
13.875 1.26 1.56 1.46 1.55 1.63 2.57 1.95 2.10 0.33 0.20 0.50 0.39 0.47 0.48
13.883 4.02 4.54 4.23 4.28 4.24 5.10 4.31 4.40 3.03 2.90 3.22 3.27 3.16 3.03
13.891 2.53 3.07 2.78 2.80 2.88 3.40 2.83 2.82 2.99 2.90 3.14 3.39 3.14 2.85
13.900 -0.25 0.04 -0.19 -0.09 -0.02 0.09 -0.06 -0.03 1.31 1.31 1.37 1.72 1.50 1.23
13.908 -0.90 -0.91 -1.09 -0.91 -1.02 -1.24 -1.06 -0.98 0.44 0.49 0.42 0.77 0.59 0.53
13.916 -1.89 -1.92 -1.96 -1.79 -1.95 -2.36 -1.92 -1.86 -0.14 -0.05 -0.13 0.12 0.07 0.13
13.925 -2.81 -2.81 -2.71 -2.61 -2.74 -3.11 -2.61 -2.59 -2.05 -2.04 -2.09 -2.00 -1.83 -1.79
13.933 -1.65 -1.76 -1.47 -1.49 -1.58 -1.87 -1.46 -1.50 -3.05 -3.04 -3.17 -3.26 -2.96 -2.97
13.941 0.15 -0.12 0.38 0.20 0.13 -0.32 0.12 0.12 -0.86 -0.66 -0.97 -1.22 -0.89 -0.92
13.950 -0.01 -0.37 0.13 -0.12 -0.20 -0.81 -0.30 -0.21 0.43 0.68 0.31 -0.02 0.21 0.22
13.958 -0.77 -1.08 -0.75 -0.88 -0.94 -1.25 -0.99 -0.87 -0.62 -0.55 -0.71 -0.93 -0.89 -0.86
13.966 -0.13 -0.39 -0.29 -0.19 -0.21 0.02 -0.19 -0.11 -0.21 -0.35 -0.18 -0.21 -0.37 -0.34
13.975 -0.49 -0.67 -0.70 -0.48 -0.39 0.11 -0.32 -0.26 0.37 0.09 0.48 0.57 0.19 0.21
13.983 -0.60 -0.58 -0.66 -0.48 -0.30 0.06 -0.15 -0.09 -0.30 -0.55 -0.21 -0.16 -0.52 -0.52
13.991 1.98 2.18 1.91 2.06 2.14 2.27 2.22 2.22 0.72 0.56 0.71 0.62 0.48 0.50
14.000 3.76 4.04 3.65 3.82 3.79 3.80 3.67 3.63 2.81 2.76 2.84 2.61 2.64 2.68
14.008 3.30 3.50 3.20 3.34 3.30 3.23 2.99 2.98 3.01 3.04 3.07 2.86 2.97 3.04
14.016 1.66 1.69 1.61 1.58 1.56 1.41 1.23 1.16 1.74 1.71 1.59 1.63 1.70 1.85
14.025 -1.18 -1.24 -1.07 -1.27 -1.25 -1.47 -1.47 -1.65 0.36 0.25 0.11 0.36 0.43 0.58
14.033 -3.48 -3.45 -3.21 -3.48 -3.49 -3.71 -3.63 -3.79 -1.80 -1.87 -1.93 -1.70 -1.44 -1.49
14.041 -2.63 -2.45 -2.31 -2.54 -2.59 -2.57 -2.58 -2.65 -3.51 -3.52 -3.51 -3.49 -3.10 -3.36
14.049 0.14 0.33 0.32 0.20 0.16 0.55 0.45 0.41 -1.61 -1.48 -1.52 -1.71 -1.37 -1.62
14.058 -0.11 -0.08 -0.23 -0.26 -0.25 0.28 0.20 0.17 0.42 0.65 0.50 0.25 0.48 0.42
14.066 -2.60 -2.73 -2.92 -2.81 -2.76 -2.26 -2.34 -2.30 -1.74 -1.55 -1.59 -1.66 -1.72 -1.61
14.074 -1.68 -1.91 -2.14 -1.92 -1.87 -1.47 -1.61 -1.54 -3.01 -2.87 -2.77 -2.54 -3.00 -2.85
14.083 2.19 1.99 1.71 1.91 1.88 2.26 2.02 2.03 -0.10 -0.03 0.09 0.51 -0.22 -0.16
14.091 4.24 4.12 3.79 4.00 4.03 4.55 4.16 4.12 3.20 3.09 3.32 3.80 3.02 2.98
14.099 2.01 1.91 1.55 1.78 2.01 2.45 2.07 1.99 3.50 3.22 3.54 3.94 3.36 3.29
14.108 -1.13 -1.23 -1.44 -1.35 -1.09 -1.24 -1.23 -1.27 1.03 0.80 0.96 1.04 0.91 0.83
14.116 -1.39 -1.44 -1.22 -1.37 -1.28 -2.24 -1.71 -1.67 -0.40 -0.43 -0.59 -0.87 -0.53 -0.57
14.124 -0.60 -0.45 0.15 -0.14 -0.22 -1.55 -0.84 -0.72 -0.16 -0.10 -0.49 -0.86 -0.30 -0.29
14.133 -1.21 -0.80 -0.27 -0.50 -0.65 -1.56 -1.03 -0.85 -0.30 -0.30 -0.62 -0.82 -0.37 -0.32
14.141 -3.70 -3.24 -2.98 -3.14 -3.32 -3.58 -3.22 -3.00 -1.41 -1.39 -1.56 -1.64 -1.37 -1.27
14.149 -3.66 -3.33 -3.23 -3.37 -3.54 -3.45 -3.19 -3.00 -3.53 -3.38 -3.48 -3.63 -3.41 -3.31
14.158 2.55 2.69 2.69 2.71 2.62 2.86 2.89 3.02 -1.56 -1.34 -1.30 -1.51 -1.33 -1.28
14.166 7.36 7.24 7.22 7.39 7.42 7.67 7.48 7.54 4.48 4.64 4.81 4.61 4.67 4.69
14.174 4.85 4.54 4.65 4.77 4.83 5.01 4.82 4.74 5.54 5.55 5.76 5.59 5.62 5.57
14.183 -1.15 -1.52 -1.26 -1.31 -1.32 -1.20 -1.37 -1.62 1.08 0.94 1.09 1.05 1.04 0.97
14.191 -4.52 -4.79 -4.62 -4.77 -4.83 -4.84 -5.06 -5.40 -3.82 -4.03 -3.94 -3.88 -3.99 -4.01
14.199 -2.26 -2.40 -2.47 -2.52 -2.64 -2.73 -2.97 -3.30 -5.02 -5.16 -5.02 -4.95 -5.08 -5.00
14.207 1.56 1.43 1.25 1.33 1.19 1.12 0.92 0.70 -1.08 -1.12 -0.98 -0.82 -0.96 -0.81
14.216 3.21 3.14 2.93 2.96 2.90 2.89 2.73 2.70 2.87 2.90 2.95 3.20 3.09 3.13
14.224 1.90 1.92 1.69 1.61 1.65 1.72 1.57 1.74 3.50 3.56 3.55 3.80 3.75 3.68
14.232 -1.38 -1.39 -1.49 -1.59 -1.53 -1.59 -1.57 -1.33 0.39 0.48 0.34 0.49 0.41 0.39
14.241 -1.69 -1.64 -1.61 -1.71 -1.71 -2.11 -1.67 -1.49 -2.73 -2.56 -2.92 -3.04 -2.93 -2.93
14.249 -0.18 -0.01 0.01 -0.07 -0.14 -0.63 0.07 0.17 -0.88 -0.69 -1.15 -1.43 -1.08 -1.11
14.257 -0.83 -0.64 -0.69 -0.62 -0.66 -0.66 -0.32 -0.26 1.34 1.38 1.12 0.96 1.17 1.13
14.266 -1.32 -1.17 -1.28 -0.93 -0.90 -0.16 -0.52 -0.46 0.81 0.64 0.71 0.76 0.67 0.67
14.274 -0.55 -0.40 -0.63 -0.15 -0.05 1.15 0.45 0.52 0.38 0.07 0.35 0.45 0.23 0.18
14.282 -0.55 -0.36 -0.68 -0.42 -0.19 0.95 0.43 0.48 0.23 -0.05 0.23 0.24 0.13 -0.03
14.291 -1.96 -1.89 -2.13 -2.17 -1.85 -1.03 -1.31 -1.30 -0.58 -0.67 -0.55 -0.54 -0.55 -0.72
14.299 -2.18 -2.30 -2.25 -2.45 -2.17 -1.71 -1.86 -1.96 -2.06 -1.97 -2.08 -1.99 -2.13 -2.26
14.307 -0.41 -0.54 -0.26 -0.49 -0.35 -0.29 -0.25 -0.41 -1.80 -1.58 -1.77 -1.73 -1.88 -2.01
14.316 -0.35 -0.50 -0.16 -0.34 -0.25 -0.60 -0.31 -0.35 -0.19 0.10 -0.02 0.01 -0.07 -0.12
14.324 -1.57 -1.74 -1.43 -1.54 -1.34 -2.11 -1.60 -1.53 -0.60 -0.38 -0.49 -0.36 -0.48 -0.37
14.333 -0.65 -0.83 -0.51 -0.61 -0.43 -1.65 -0.95 -0.99 -1.84 -1.79 -1.93 -1.82 -1.90 -1.65
14.341 2.54 2.37 2.68 2.51 2.46 0.98 1.71 1.50 -1.20 -1.31 -1.40 -1.48 -1.43 -1.16
14.349 5.39 5.32 5.53 5.30 4.97 3.54 4.02 3.87 2.15 2.10 2.09 1.87 2.04 2.18
14.358 5.06 5.03 5.03 4.88 4.32 3.25 3.33 3.42 4.67 4.75 4.83 4.63 4.89 4.87
14.366 3.07 3.03 2.82 2.88 2.26 1.90 1.63 1.74 3.04 3.07 3.30 3.22 3.43 3.40
14.374 1.37 1.49 1.12 1.38 0.86 1.33 0.76 0.75 0.79 0.67 1.01 0.94 1.12 1.10
14.383 -0.08 0.24 -0.24 0.16 -0.18 0.96 0.14 0.07 -0.43 -0.62 -0.31 -0.38 -0.28 -0.32
14.391 -0.77 -0.38 -0.91 -0.45 -0.50 1.13 0.02 -0.03 -0.97 -1.21 -0.66 -0.53 -0.72 -0.75
14.399 -2.16 -1.94 -2.38 -1.98 -1.71 -0.21 -1.34 -1.31 -0.70 -1.00 -0.18 0.11 -0.31 -0.26
14.408 -3.40 -3.37 -3.50 -3.36 -2.94 -2.38 -2.92 -2.77 -1.04 -1.24 -0.76 -0.56 -0.91 -0.75
14.416 -2.55 -2.55 -2.23 -2.48 -2.16 -2.70 -2.32 -2.13 -0.81 -0.72 -1.06 -1.07 -1.03 -0.92
14.424 -1.35 -1.37 -0.78 -1.27 -1.09 -2.04 -1.06 -0.88 -0.29 -0.03 -0.90 -0.97 -0.67 -0.68
14.433 -0.48 -0.57 -0.07 -0.48 -0.28 -0.78 0.18 0.28 -0.12 0.10 -0.59 -0.53 -0.39 -0.40
14.441 -0.43 -0.59 -0.40 -0.57 -0.36 -0.28 0.27 0.29 0.38 0.55 0.21 0.34 0.30 0.30
14.449 -0.89 -1.03 -1.07 -1.07 -0.93 -0.64 -0.45 -0.52 -0.05 0.12 -0.12 -0.15 -0.15 -0.23
14.458 -0.82 -0.89 -0.98 -0.94 -0.84 -0.50 -0.44 -0.61 -0.53 -0.43 -0.59 -0.72 -0.65 -0.85
14.466 -0.61 -0.64 -0.74 -0.71 -0.65 -0.34 -0.30 -0.51 -0.79 -0.90 -0.87 -0.99 -0.90 -1.17
14.474 1.65 1.59 1.50 1.54 1.52 1.71 1.67 1.52 -0.30 -0.60 -0.41 -0.51 -0.48 -0.67
14.483 4.07 3.95 3.97 4.05 3.92 4.09 3.97 3.93 2.10 1.86 2.12 2.05 1.94 1.86
14.491 2.48 2.30 2.43 2.60 2.41 2.65 2.58 2.64 2.93 2.93 3.11 3.07 2.90 2.86
14.499 -0.80 -0.93 -0.92 -0.75 -0.92 -0.66 -0.68 -0.60 0.88 0.97 1.11 1.11 1.02 1.05
14.508 -3.13 -3.10 -3.34 -3.25 -3.37 -3.26 -3.39 -3.37 -2.32 -2.31 -2.23 -2.20 -2.16 -2.09
14.516 -3.83 -3.64 -3.97 -3.90 -3.96 -4.16 -4.32 -4.33 -4.34 -4.39 -4.45 -4.41 -4.43 -4.33
14.524 -2.72 -2.47 -2.72 -2.59 -2.63 -3.10 -3.12 -3.16 -3.28 -3.28 -3.46 -3.34 -3.51 -3.35
14.533 -0.69 -0.48 -0.49 -0.50 -0.55 -1.18 -1.04 -1.12 -2.05 -1.95 -2.28 -2.18 -2.26 -2.08
14.541 2.24 2.36 2.75 2.31 2.31 1.62 1.89 1.83 -1.21 -0.92 -1.50 -1.63 -1.32 -1.24
14.549 3.43 3.40 3.97 3.34 3.42 2.84 3.09 3.13 1.99 2.39 1.81 1.50 2.05 2.00
14.558 1.41 1.32 1.57 1.32 1.39 1.04 1.04 1.15 4.55 4.75 4.62 4.45 4.72 4.73
14.566 0.67 0.64 0.44 0.63 0.66 0.48 0.20 0.28 2.93 2.80 3.21 3.36 3.18 3.30
14.574 2.33 2.30 1.99 2.21 2.27 2.15 1.74 1.81 0.12 -0.10 0.51 0.83 0.48 0.55
14.583 3.59 3.46 3.36 3.35 3.48 3.33 2.99 3.11 0.86 0.79 1.29 1.43 1.29 1.23
14.591 1.79 1.61 1.66 1.63 1.71 1.57 1.42 1.51 3.14 3.15 3.51 3.42 3.49 3.38
14.599 -2.29 -2.43 -2.41 -2.25 -2.32 -2.34 -2.29 -2.28 0.86 0.79 0.99 0.88 0.91 0.81
14.608 -2.35 -2.40 -2.47 -2.17 -2.39 -2.15 -1.94 -1.96 -2.59 -2.70 -2.68 -2.75 -2.77 -2.79
14.616 -0.15 -0.13 -0.22 0.08 -0.19 0.41 0.68 0.67 -0.86 -0.99 -1.02 -1.06 -1.03 -0.92
14.624 -0.94 -0.90 -0.87 -0.79 -0.92 -0.06 0.16 0.09 1.03 0.94 0.84 0.89 0.94 1.03
14.633 -1.81 -1.74 -1.55 -1.78 -1.63 -0.77 -0.68 -0.80 -0.21 -0.21 -0.49 -0.38 -0.35 -0.38
14.641 -2.15 -2.04 -1.80 -2.11 -1.79 -1.13 -1.21 -1.29 -1.36 -1.37 -1.69 -1.65 -1.64 -1.72
14.650 -1.70 -1.57 -1.32 -1.51 -1.27 -0.90 -1.11 -1.16 -2.02 -2.03 -2.21 -2.29 -2.28 -2.29
14.658 -0.31 -0.17 0.07 0.03 0.14 0.18 0.00 -0.04 -1.62 -1.54 -1.58 -1.71 -1.67 -1.65
14.666 0.56 0.71 0.78 0.88 0.96 0.69 0.66 0.68 -0.30 -0.20 -0.20 -0.19 -0.23 -0.31
14.675 3.13 3.20 2.96 3.17 3.11 2.65 2.72 2.72 1.23 1.22 1.28 1.44 1.32 1.16
14.683 3.79 3.63 3.13 3.39 3.17 2.71 2.77 2.59 2.25 2.06 2.33 2.52 2.33 2.16
14.691 1.09 0.90 0.15 0.50 0.30 0.05 -0.03 -0.34 1.21 0.77 1.49 1.73 1.31 1.22
14.700 -1.09 -0.98 -1.89 -1.43 -1.57 -1.58 -1.80 -1.92 -0.01 -0.52 0.41 0.66 0.14 0.21
14.708 -4.42 -4.20 -4.74 -4.49 -4.63 -4.68 -4.80 -4.53 -2.06 -2.22 -1.81 -1.72 -1.92 -1.74
14.716 -5.84 -5.90 -5.65 -5.97 -6.02 -6.36 -6.19 -5.70 -5.11 -4.65 -5.13 -5.28 -4.94 -4.76
